Wavelength (nm),30 s,60 s,90 s,120 s,150 s,180 s,210 s ,240 s,270 s,300 s,330 s,360 s,390 s ,420 s,450 s,480 s,570 s,600 s
650.0166626,0.008514157,0.012844456,0.011208195,0.026028588,0.010249305,0.006809079,0.004112264,0.005547385,0.010780693,0.002883958,0.003968665,0.014663316,0.006687061,0.018222401,0.008036818,0.00610014,0.006646685,0.00898618
648.9905396,0.008544437,0.012709483,0.011332765,0.026082518,0.010470352,0.006842212,0.004057233,0.005522216,0.010805346,0.003037052,0.004044326,0.01454215,0.006668896,0.018186202,0.007969291,0.006082735,0.006722998,0.009005393
648.0008545,0.008774893,0.012918586,0.01144387,0.026382077,0.010273344,0.006958039,0.004229875,0.005696596,0.010947905,0.003151087,0.004035573,0.014857639,0.006902883,0.018284602,0.008376721,0.00636563,0.006921242,0.009391285
647.0108643,0.008688765,0.012895226,0.011590495,0.026480373,0.010574287,0.007051639,0.004165446,0.005795853,0.01098109,0.003309049,0.004039257,0.015007483,0.006891679,0.018406764,0.008132366,0.00644494,0.006922688,0.0094684
645.9838867,0.008662119,0.013082222,0.011842844,0.026170461,0.010492336,0.006985738,0.004269818,0.005775339,0.010972886,0.003281427,0.004071761,0.014963272,0.007060795,0.018359883,0.008119204,0.006425552,0.006967983,0.009357799
644.9933472,0.008808387,0.012767994,0.011694858,0.026456766,0.010529596,0.006838688,0.003934967,0.005591986,0.010871909,0.003188819,0.004058853,0.015008555,0.006856439,0.018536819,0.007999982,0.006510864,0.006947255,0.009640084
644.0025024,0.008794758,0.012952321,0.011747248,0.026270716,0.0104725,0.006962932,0.00392525,0.005998766,0.010981116,0.003361298,0.004199712,0.015006786,0.006946887,0.018695289,0.00809196,0.006583158,0.006876321,0.009591017
643.0113525,0.008866402,0.012716413,0.011523024,0.02617915,0.010418062,0.006798351,0.003996801,0.005725814,0.01077512,0.003176667,0.003909081,0.014976883,0.006970534,0.018517505,0.007921177,0.006609993,0.006746291,0.009502239
641.9832153,0.00894329,0.013084676,0.011635295,0.026608301,0.010848446,0.006917849,0.004019713,0.005761671,0.010939437,0.00360194,0.004194954,0.015107444,0.007066978,0.018889965,0.008239646,0.006737378,0.007143733,0.009744561
640.9914551,0.008802312,0.012911332,0.011630323,0.02627374,0.010618213,0.006635619,0.003834384,0.005669739,0.010825834,0.003308006,0.003932355,0.015225042,0.007101446,0.018659836,0.008152543,0.006633569,0.007088106,0.009623965
639.9995117,0.009044905,0.013116104,0.011477146,0.02645308,0.010851604,0.006749315,0.004070664,0.005819306,0.010774058,0.003387073,0.00399748,0.015239733,0.006994735,0.019039314,0.008397781,0.006774371,0.007037038,0.009934125
639.0072021,0.009059152,0.013169573,0.011569466,0.026514849,0.010967577,0.006876952,0.004044064,0.005954727,0.01098186,0.00334129,0.004067189,0.015262925,0.007204105,0.01907718,0.008559142,0.006841239,0.006980583,0.010170832
638.0147095,0.008891819,0.013065042,0.01143595,0.026519636,0.010931473,0.00668112,0.00381835,0.005910325,0.01112971,0.003461667,0.004159723,0.015396629,0.007258246,0.019105177,0.008532583,0.006906934,0.007029829,0.01010141
636.9851074,0.008956952,0.013213228,0.011313768,0.026451731,0.011001533,0.006724943,0.003995573,0.006118438,0.011120202,0.00344515,0.004074923,0.015506391,0.007304102,0.019203922,0.008557109,0.007030855,0.006743426,0.010220787
635.9919434,0.009086482,0.013263053,0.011555695,0.026673283,0.011217041,0.006862777,0.004128492,0.006110089,0.011239381,0.003598521,0.004247912,0.015595171,0.007635713,0.019476356,0.008607406,0.007161996,0.00703688,0.01030775
634.9985962,0.009153469,0.013483825,0.011774642,0.026724897,0.011285313,0.007011729,0.004131394,0.006260754,0.011249449,0.003740196,0.004464461,0.015622031,0.007786038,0.019497175,0.008675138,0.007566852,0.007063479,0.010537023
634.0048218,0.009177396,0.013236686,0.011431008,0.026804987,0.011118635,0.006970008,0.004175248,0.006112032,0.011298996,0.003677145,0.004438726,0.015732011,0.007781795,0.019380013,0.008655966,0.007393327,0.006966694,0.010524663
633.0109253,0.009126399,0.013489727,0.01132506,0.026847309,0.01112461,0.007043484,0.004156064,0.006036141,0.011439937,0.00371769,0.004588943,0.015788702,0.007859836,0.019701717,0.008852505,0.00737658,0.007224766,0.010595745
632.0166626,0.009258544,0.013538088,0.011606128,0.026811596,0.011148353,0.007218607,0.004265583,0.006261252,0.011441213,0.003964198,0.004744759,0.016074153,0.008070889,0.01983227,0.009089073,0.007608499,0.007395512,0.010856647
630.9852905,0.00943451,0.013483692,0.011488257,0.026672157,0.011081642,0.007305813,0.004294235,0.006322631,0.011550086,0.003872489,0.004702732,0.016091989,0.00813218,0.019884108,0.009166503,0.007861127,0.00759949,0.01074678
629.9905396,0.009576514,0.013621257,0.011630456,0.026806088,0.011138075,0.007266775,0.004487581,0.006423765,0.011706133,0.003906051,0.004906129,0.016200073,0.008213582,0.019940667,0.00916341,0.007772624,0.007664851,0.010985763
628.9954224,0.009330213,0.013544284,0.011475126,0.026779408,0.011059629,0.007133233,0.004473405,0.006371671,0.011670021,0.003903178,0.00478912,0.01610166,0.008209256,0.019878281,0.009064015,0.007921757,0.007621803,0.011136083
628.000061,0.009579796,0.013750343,0.011625297,0.02699741,0.010955073,0.007380635,0.004678841,0.006547023,0.011818185,0.004149609,0.005164472,0.016341565,0.008422299,0.020114399,0.009365893,0.008132392,0.00781487,0.011223496
627.0043945,0.009599379,0.013726163,0.011750254,0.027130451,0.011002649,0.00740478,0.004760435,0.00664934,0.011866334,0.004068521,0.005317979,0.016518543,0.008662251,0.020046242,0.009606895,0.008283231,0.008025005,0.011426675
626.0084839,0.009654376,0.013890932,0.011652578,0.026967302,0.010817102,0.00743601,0.004757085,0.006503664,0.012092305,0.004046338,0.005476286,0.016683703,0.008652427,0.020312859,0.009807096,0.008242602,0.007962674,0.011577893
625.0123291,0.009493349,0.013781657,0.011565531,0.026866861,0.01068602,0.007369709,0.004952235,0.006385121,0.011902196,0.004129826,0.005419929,0.016649622,0.008652453,0.020294711,0.009724257,0.008309828,0.008095652,0.011566143
624.0158081,0.009783664,0.014111381,0.012000114,0.02733341,0.010899593,0.007777104,0.005353017,0.006811498,0.012301298,0.004496971,0.005712726,0.016948665,0.009065125,0.020745344,0.010186759,0.008602864,0.008414224,0.011974914
622.9821777,0.009780381,0.014065737,0.01174161,0.02740192,0.010934048,0.007741343,0.005397256,0.006774529,0.01251444,0.00423607,0.005766997,0.016922476,0.009064967,0.020827707,0.010227969,0.008618232,0.008563524,0.012005809
621.9852295,0.009877637,0.014007158,0.011867611,0.027112843,0.010939915,0.007613083,0.005548434,0.006778289,0.012606208,0.004541515,0.005671496,0.016943013,0.009152545,0.020889115,0.009989165,0.008735564,0.008759098,0.012090522
620.987854,0.009724363,0.014080898,0.011825261,0.027103035,0.010713932,0.00765152,0.00542483,0.006516672,0.012719745,0.004342027,0.005823504,0.017049504,0.009034438,0.020707659,0.010153926,0.008664337,0.008550192,0.01208102
619.9903564,0.009935476,0.014390834,0.01192654,0.027498765,0.011118555,0.008074291,0.005953966,0.007055375,0.013113836,0.004720002,0.006115418,0.017469591,0.00949274,0.021160813,0.010549276,0.00900468,0.009001904,0.012594642
618.9924927,0.009849462,0.014316157,0.012024198,0.027353756,0.011036183,0.007828549,0.005974778,0.00703125,0.012848109,0.004708332,0.006252507,0.017389264,0.009498006,0.021305291,0.010438055,0.009107815,0.009042843,0.012485508
617.9944458,0.01015178,0.014494158,0.012124459,0.027426019,0.011148779,0.008005598,0.006018267,0.007226187,0.013203409,0.004891861,0.006206789,0.017483119,0.009678092,0.021472963,0.010696129,0.009391603,0.009192414,0.012811929
616.9960327,0.010202395,0.014229459,0.01218819,0.027754709,0.011296206,0.008157449,0.005991076,0.007347856,0.013018894,0.00492888,0.006266478,0.017638346,0.009659326,0.02146638,0.010629859,0.009342168,0.009495333,0.012974671
615.9974365,0.010104987,0.014479866,0.012124247,0.027576845,0.011464654,0.008036001,0.005903109,0.007284385,0.013078781,0.005035268,0.006440474,0.017615002,0.009681242,0.02178313,0.010745745,0.009571884,0.009588847,0.012939414
614.9984741,0.010199823,0.014445825,0.012205122,0.027619381,0.011462023,0.008176045,0.006103841,0.007237162,0.013187958,0.005113865,0.00660923,0.017769603,0.009924167,0.021664124,0.010929854,0.009655117,0.009917864,0.013179046
613.9992676,0.010297863,0.014622915,0.01233613,0.027624097,0.011638831,0.00826843,0.0061637,0.007438301,0.013295135,0.00518205,0.006681514,0.017899226,0.010111823,0.021950033,0.011013534,0.009869374,0.010160604,0.013440623
612.9998169,0.01030661,0.014658524,0.012298315,0.027662527,0.0118807,0.008259776,0.006197441,0.007335351,0.013187665,0.005158709,0.006698365,0.017853776,0.009939926,0.021943634,0.010860947,0.00989591,0.010195955,0.013547088
612.000061,0.010383622,0.014689476,0.012518037,0.027715554,0.012025342,0.008433385,0.006443049,0.007581498,0.013388108,0.005211365,0.006991605,0.018216165,0.009969007,0.022408139,0.011023172,0.010204568,0.010425407,0.013729075
611.0001221,0.010425593,0.01480305,0.012702579,0.027936179,0.0122146,0.008493249,0.006491157,0.007635159,0.013389844,0.005429967,0.007259141,0.01826662,0.010128462,0.022588616,0.01120275,0.010237775,0.010688381,0.013982322
609.9998169,0.010421562,0.014898784,0.01253826,0.027943218,0.012224478,0.008608832,0.006473342,0.007620986,0.01340111,0.005447765,0.007212264,0.018297967,0.010226141,0.022278771,0.011128196,0.010404036,0.010766071,0.014073277
608.9993286,0.010554872,0.014977098,0.012267506,0.02797077,0.012275654,0.008667849,0.00671653,0.007680001,0.013508819,0.005637272,0.007456103,0.018494381,0.01034587,0.022539236,0.0114119,0.010499416,0.011100444,0.014269903
607.9984741,0.010570017,0.014972569,0.012627766,0.027939934,0.012337622,0.008633125,0.006657567,0.007870696,0.013356314,0.005685291,0.007450836,0.018380297,0.010126607,0.022760164,0.011332234,0.010549143,0.011429147,0.014302139
606.9974365,0.010648083,0.014939399,0.012867387,0.02791092,0.012461958,0.008723811,0.00669918,0.007880713,0.013458165,0.005858608,0.007498635,0.018585097,0.010237351,0.02312427,0.01150673,0.010726456,0.011512312,0.01473149
605.9961548,0.010661772,0.014972945,0.013023215,0.028147111,0.012514654,0.008938297,0.006746055,0.007934912,0.013436912,0.005900459,0.007477276,0.018753532,0.010439646,0.023197692,0.011553409,0.011124132,0.011924624,0.014826888
604.9945068,0.01097886,0.015283276,0.012937147,0.028267354,0.012732406,0.009043161,0.00682149,0.008170901,0.013692207,0.006067509,0.007925474,0.018888019,0.010633758,0.023231443,0.011966026,0.011257127,0.011981221,0.01509214
603.9926758,0.011177012,0.015341464,0.013017187,0.028307747,0.01296747,0.009295382,0.00697711,0.008242865,0.013991037,0.006318428,0.0081028,0.018979736,0.010846057,0.023426332,0.012063933,0.011660369,0.012353122,0.015553636
602.9905396,0.011202591,0.015447806,0.012858588,0.028280063,0.013066962,0.009523883,0.007080291,0.008375243,0.014162406,0.006246598,0.008130281,0.01905584,0.010859274,0.02365214,0.01217983,0.011738126,0.012544787,0.015715532
601.9881592,0.011222885,0.015605314,0.013167678,0.028535916,0.013240315,0.009394804,0.007101446,0.00835532,0.014166846,0.006549967,0.008130835,0.019315841,0.011248359,0.023870027,0.012335971,0.011966213,0.012918453,0.01607082
600.9854126,0.011138447,0.015651656,0.013143212,0.028568592,0.013099349,0.009436203,0.007136707,0.008414487,0.014235958,0.006586444,0.008180951,0.019195182,0.011252026,0.023902573,0.012480446,0.012055974,0.013015666,0.016266204
599.982605,0.011492908,0.015709842,0.013461797,0.028896514,0.013373639,0.009709989,0.007410705,0.008653536,0.014405336,0.00674261,0.008498345,0.019668428,0.011514279,0.024293562,0.01273955,0.012549637,0.013561348,0.016612021
599.0164795,0.011344803,0.015589214,0.013355033,0.028955255,0.013428048,0.009929729,0.007453206,0.008754951,0.01443132,0.006954725,0.008571445,0.019688662,0.011617161,0.024493311,0.012889332,0.012659188,0.013721033,0.016975636
598.0131226,0.01141158,0.015670497,0.013524361,0.029129671,0.01362481,0.009852904,0.007466452,0.008984462,0.014595501,0.006988685,0.008727323,0.019699469,0.011686401,0.024698712,0.012863387,0.012807529,0.013994165,0.017101631
597.0093994,0.01162668,0.015866881,0.013576065,0.029135291,0.01384018,0.010108405,0.007471166,0.00908331,0.01476676,0.007170734,0.009032192,0.019897874,0.01195086,0.024544884,0.013055786,0.013066029,0.01414291,0.017503276
596.0054321,0.011551575,0.015960649,0.013652616,0.028981792,0.013905525,0.010157,0.00754441,0.009180516,0.014841834,0.007171207,0.009181256,0.020028947,0.012098587,0.024827324,0.013291105,0.013207091,0.014326806,0.017700357
595.0012207,0.011661937,0.01596516,0.013501876,0.029256223,0.014024081,0.010204912,0.007681055,0.009109876,0.014958074,0.007299995,0.009330689,0.020259587,0.012121744,0.024923513,0.01330824,0.013453653,0.014639675,0.018028295
593.9967651,0.011805976,0.016124628,0.01394872,0.029472424,0.014206643,0.010614181,0.007966365,0.009616158,0.015277753,0.007516228,0.009585644,0.020563055,0.012457029,0.025226252,0.013572834,0.013820057,0.015050198,0.018526528
592.9919434,0.0118014,0.016042268,0.01405202,0.029609524,0.014248129,0.010525326,0.007969449,0.00945377,0.015139152,0.007732779,0.009699162,0.020754142,0.012696075,0.025608659,0.013644416,0.013916804,0.015306282,0.018838355
591.9869385,0.011986489,0.016208913,0.014200063,0.029850882,0.014666556,0.010674214,0.008140516,0.009803362,0.015718753,0.007930219,0.010026329,0.02099905,0.012902105,0.026023917,0.014107584,0.01441497,0.015822448,0.019328155
590.9817505,0.011782808,0.016227614,0.014071272,0.029806687,0.014461908,0.010852003,0.008072761,0.009771406,0.015676482,0.007973246,0.010099555,0.020891504,0.013024682,0.025888797,0.014142108,0.014527,0.016188975,0.019646382
590.0134888,0.011994259,0.016378848,0.014142108,0.029972319,0.014653891,0.010914749,0.008241493,0.009758275,0.015815172,0.008093305,0.010209974,0.021213543,0.0131815,0.026151519,0.014395195,0.014930504,0.016552694,0.020191027
589.0076904,0.012270329,0.016393283,0.014173238,0.029905288,0.014688887,0.011083714,0.008110896,0.009926604,0.016002275,0.008336162,0.010306133,0.021386508,0.013420092,0.026367774,0.01471063,0.015087236,0.016862273,0.020482507
588.0015869,0.012264497,0.016504023,0.014271268,0.030006573,0.014935702,0.011189257,0.0083093,0.010076188,0.016104965,0.008454606,0.010658748,0.021606226,0.013589846,0.026771976,0.015135561,0.015573223,0.017318355,0.02102429
586.9953003,0.012312935,0.016653817,0.014448608,0.030223787,0.014909741,0.011188646,0.008450515,0.010270349,0.016202006,0.008651978,0.010725792,0.021853276,0.013873292,0.026955541,0.01548976,0.015791791,0.017764453,0.021615747
585.9887695,0.012303988,0.016595749,0.014592502,0.030357208,0.015061963,0.011499261,0.008567062,0.010662965,0.016565925,0.008812826,0.011148938,0.022209266,0.014173505,0.02734882,0.015794689,0.016261689,0.018366983,0.022298772
584.9819946,0.012457855,0.01672427,0.014631616,0.03046074,0.01522346,0.011576643,0.008699143,0.010503076,0.016592333,0.008971063,0.011225673,0.02222899,0.01448099,0.027604761,0.016114071,0.016730027,0.018816242,0.022768458
584.012207,0.012800652,0.016892817,0.014977339,0.030884249,0.015244291,0.011830926,0.009194317,0.010860973,0.016895993,0.009296651,0.011679594,0.022747343,0.014804014,0.028300701,0.016725373,0.017270891,0.019468261,0.023522073
583.0048828,0.012760903,0.017065605,0.015130119,0.030982595,0.015399393,0.012053126,0.009461574,0.011082731,0.017239107,0.009611368,0.011878464,0.023045704,0.01517408,0.028364005,0.017061621,0.017876621,0.020244561,0.024416385
581.9973145,0.012791294,0.016998274,0.014963646,0.030959632,0.01524271,0.012021856,0.009356688,0.01103751,0.017071825,0.009654508,0.011981886,0.023128584,0.015463927,0.028769929,0.017488966,0.017991357,0.020568401,0.02488686
580.989563,0.013077714,0.017190574,0.015084154,0.030991381,0.015386063,0.012190026,0.009692041,0.011387344,0.01756772,0.010137895,0.012467632,0.023543717,0.015697764,0.029237118,0.017927712,0.018788319,0.021472637,0.025878575
579.9813843,0.013155965,0.017379375,0.015603033,0.031152321,0.015536681,0.012502904,0.009908436,0.011585231,0.017838886,0.010446858,0.012837551,0.024037132,0.016238041,0.029863331,0.018497624,0.019421617,0.022218529,0.027054654
579.010498,0.013072805,0.017291794,0.015333822,0.031312235,0.015582345,0.012638907,0.01009015,0.011737408,0.01813346,0.010529782,0.013011612,0.024436375,0.016467644,0.03021968,0.018935714,0.019987609,0.022957381,0.027741602
578.0018921,0.013162795,0.017604003,0.015445285,0.031567376,0.015832327,0.012696768,0.01037535,0.011965468,0.018457025,0.010862009,0.013424737,0.024895057,0.017036259,0.03091852,0.019666316,0.02081706,0.02412997,0.029109076
576.993042,0.013306372,0.017505109,0.015694758,0.031614117,0.015901223,0.012902852,0.010481145,0.012115303,0.018624438,0.011198367,0.013759667,0.025326233,0.01754047,0.031319775,0.020175327,0.021641567,0.025355788,0.030267054
575.9839478,0.013345423,0.017477999,0.015703293,0.031728696,0.0161789,0.013023055,0.010830478,0.012270355,0.018916354,0.011391091,0.014054347,0.025653912,0.01794452,0.031930029,0.020955067,0.022423211,0.026403781,0.031645939
575.0119629,0.013271781,0.017644251,0.015767282,0.03161604,0.016217377,0.013055145,0.010899832,0.012216011,0.01904586,0.011677866,0.014452568,0.026102722,0.018449057,0.032463335,0.021590093,0.023217816,0.027555745,0.033106316
574.0024414,0.013808059,0.018008705,0.016361751,0.032285258,0.016785664,0.013760736,0.011484616,0.012796332,0.019898036,0.012540897,0.015264051,0.027236355,0.019681782,0.033781648,0.022850603,0.024791064,0.029605033,0.035291459
572.9926147,0.013910657,0.018055143,0.016438957,0.032455385,0.016882053,0.013796728,0.011622745,0.013009318,0.020077391,0.013004011,0.0155267,0.027754763,0.020341232,0.034476411,0.023842352,0.025920339,0.03117799,0.037252788
571.9825439,0.014166872,0.018380351,0.016781924,0.032761857,0.017195314,0.014313295,0.012241199,0.013426953,0.020824039,0.013593078,0.016413311,0.028727723,0.021374108,0.035478804,0.025265045,0.027535528,0.033428095,0.039799571
571.0096436,0.013991465,0.018209632,0.016663529,0.032601856,0.017202128,0.014462016,0.012222587,0.01347002,0.020984896,0.013966657,0.016827237,0.029444721,0.021948127,0.036514938,0.026234087,0.028842622,0.035309207,0.041942466
569.9990234,0.014176367,0.018428991,0.016844781,0.032952666,0.017437495,0.014832245,0.012663025,0.014088866,0.02175262,0.014770027,0.017673962,0.030635204,0.023254601,0.037970364,0.028051972,0.030941814,0.038115233,0.045186631
568.9882202,0.014323702,0.018339792,0.017090699,0.032974727,0.017538853,0.015126233,0.013078273,0.01431993,0.022266127,0.015235309,0.01832594,0.031503242,0.024293315,0.039422665,0.029689729,0.032836422,0.040993273,0.04818996
568.0146484,0.014410207,0.018644866,0.017248966,0.033272486,0.0179139,0.01551511,0.013665919,0.014880086,0.023009373,0.016296439,0.019311402,0.032951828,0.025865827,0.041489951,0.031604122,0.035529114,0.044769093,0.052571781
567.0032959,0.014583668,0.018781994,0.017584864,0.033708539,0.018018527,0.015914299,0.013962941,0.015488686,0.023846891,0.017249934,0.020713659,0.034699854,0.027571604,0.043345686,0.033995774,0.038613696,0.049124796,0.057340257
565.9917603,0.014703534,0.019112157,0.017691622,0.033760775,0.018409465,0.016339872,0.014606155,0.016031202,0.024761602,0.018510643,0.021936418,0.036392502,0.029523928,0.045654662,0.0365781,0.041690845,0.053508908,0.062227272
565.017334,0.014782775,0.019102175,0.018005522,0.0339696,0.018618817,0.01688095,0.015142208,0.016657988,0.025784399,0.019582279,0.023313977,0.038331959,0.031286754,0.048129831,0.039257102,0.045305967,0.05847716,0.067679003
564.0053711,0.015138911,0.01924881,0.017980887,0.034340959,0.019027982,0.017388267,0.015750961,0.017421678,0.026865015,0.021068743,0.024796436,0.04052927,0.033723593,0.051023006,0.042501975,0.049175728,0.06426724,0.073921658
562.993042,0.015087718,0.019312268,0.018183123,0.034648769,0.019279767,0.017747868,0.016582249,0.018309793,0.028152442,0.022679918,0.026877297,0.043049861,0.036706813,0.054643001,0.04631386,0.05436464,0.071505569,0.081434265
562.0180054,0.015235309,0.019543286,0.018400336,0.035007328,0.019724282,0.018492626,0.017176867,0.019322742,0.029851547,0.024432514,0.028959848,0.046044558,0.039873056,0.058541551,0.050492655,0.059810072,0.07895834,0.09002386
561.005249,0.015277162,0.019526796,0.018400606,0.035154942,0.020036023,0.019148486,0.018067341,0.020391637,0.031454481,0.026563471,0.031594351,0.049527079,0.04349456,0.063100584,0.055598821,0.066160657,0.088074498,0.099568821
559.9921875,0.015472725,0.019542988,0.018416269,0.035438187,0.020323057,0.019853406,0.018953316,0.021606879,0.033093691,0.028827408,0.034138255,0.053066913,0.047200739,0.067740634,0.060853515,0.073063515,0.097223632,0.109988816
559.0163574,0.01566945,0.019847037,0.018892642,0.036008134,0.021041516,0.020756749,0.020061424,0.022933338,0.035157721,0.031462133,0.037202474,0.057247426,0.051786643,0.073504053,0.066743888,0.080556639,0.107296556,0.12089935
558.0029297,0.015765537,0.019958988,0.019138342,0.036468934,0.021680042,0.021707391,0.021371579,0.024795694,0.037735831,0.034660459,0.040982407,0.062478013,0.057096712,0.080209635,0.074223585,0.089544296,0.119694583,0.134512365
556.9891968,0.015991291,0.020114942,0.019414172,0.037072036,0.022599332,0.022874942,0.022961065,0.026845932,0.040659845,0.038414247,0.045508839,0.068453252,0.063308284,0.08800862,0.082228348,0.099968992,0.133545578,0.149025917
556.0127563,0.016202679,0.02048579,0.019784179,0.037565432,0.02349942,0.024241798,0.024813537,0.029063599,0.043762401,0.042500947,0.050341394,0.074700661,0.069890976,0.096022956,0.091298454,0.111008354,0.148200259,0.164876983
554.9985352,0.016334845,0.020534448,0.019968176,0.038231146,0.024477426,0.025813326,0.026795102,0.031605627,0.047539894,0.047262181,0.055836845,0.08249592,0.077848673,0.105812475,0.101569928,0.123809956,0.165240198,0.183143109
553.9840088,0.01653016,0.020871921,0.020370748,0.039112955,0.025637381,0.027714284,0.02918108,0.034684237,0.051878605,0.052786347,0.062001273,0.090507299,0.086438522,0.116178311,0.1128117,0.13759236,0.183532804,0.20243372
553.006897,0.016635232,0.021090373,0.020584524,0.039753072,0.026807383,0.029673904,0.031757798,0.037728209,0.056430005,0.058453642,0.068837084,0.099355012,0.095623121,0.126771942,0.125131369,0.152242139,0.201940522,0.222430557
551.9919434,0.016840933,0.021421371,0.021164918,0.040753718,0.028528258,0.032085605,0.034713451,0.041619644,0.062100772,0.065564543,0.076813936,0.109753318,0.106108636,0.140413389,0.138670161,0.169421658,0.223519251,0.244773731
551.0143433,0.016779719,0.02155119,0.021572355,0.041883081,0.030174308,0.034578543,0.037911948,0.045714218,0.068116933,0.072606653,0.085320689,0.120637499,0.117499411,0.153809667,0.153122366,0.186831579,0.245506242,0.26749441
549.9989014,0.017023068,0.021664234,0.021960706,0.043025564,0.032101128,0.037497081,0.041785371,0.050501756,0.074670382,0.080802388,0.094839059,0.132429227,0.130312473,0.16955334,0.169175834,0.20648244,0.270015001,0.291652948
548.9832153,0.01719569,0.021943307,0.022647873,0.044527017,0.03447644,0.041283116,0.046398971,0.056455974,0.083081931,0.091254987,0.106715292,0.147538543,0.145593956,0.187763214,0.188328371,0.228992552,0.297992975,0.320697308
548.0048828,0.017316012,0.022229943,0.023375819,0.046247195,0.037079167,0.045051906,0.051168654,0.062592871,0.091434322,0.101476952,0.118834712,0.162651956,0.160878405,0.205625668,0.207402229,0.252450526,0.325004071,0.348375082
546.9887695,0.017545726,0.022622865,0.024234982,0.047814492,0.039731741,0.049303997,0.056407012,0.068615839,0.099705122,0.111664377,0.130362541,0.17748192,0.175962314,0.222710729,0.226063728,0.273901701,0.35118416,0.374650002
546.0100708,0.01768356,0.022913745,0.024921868,0.049578462,0.04264465,0.053811885,0.061912514,0.075232096,0.109267756,0.122706316,0.143149778,0.193197563,0.192174792,0.241750374,0.24514243,0.297613591,0.376569212,0.401119947
544.9934692,0.017897122,0.023143491,0.025935289,0.051818926,0.046144642,0.059096951,0.06836804,0.083212428,0.119918786,0.135520399,0.158595771,0.211824447,0.210831136,0.263037026,0.267290145,0.321661085,0.405917585,0.429150701
544.0142822,0.018106958,0.023602886,0.027313506,0.054834653,0.050700668,0.065491401,0.076435767,0.093025222,0.133286253,0.151156277,0.176185384,0.232720003,0.232355863,0.287701786,0.29292357,0.351898134,0.437881857,0.461353004
542.9971313,0.018244727,0.02416344,0.028786082,0.058181502,0.055912066,0.073376007,0.085467085,0.10394416,0.148750052,0.168177873,0.195915297,0.256646127,0.255361199,0.315384239,0.321203768,0.382318318,0.472083062,0.495267898
542.0174561,0.018469045,0.024690246,0.030341718,0.061654069,0.060500175,0.080345601,0.094049469,0.113833115,0.162191987,0.183913782,0.213256881,0.277857363,0.276464671,0.337742627,0.344610602,0.40907982,0.5001055,0.523135424
540.999939,0.018720614,0.02542536,0.031953488,0.064535894,0.065768793,0.087553315,0.102959104,0.12332996,0.17563051,0.198961705,0.231028542,0.297995448,0.296699137,0.359807938,0.366598904,0.434563935,0.525729835,0.54719317
539.9821777,0.018753666,0.025914652,0.03382482,0.068542115,0.071387775,0.095731206,0.112877622,0.135194555,0.191339657,0.216785684,0.251389831,0.321545214,0.319298625,0.386314213,0.392372519,0.462698907,0.554346442,0.573476851
539.0018921,0.018963404,0.026756007,0.036399625,0.073777899,0.078801177,0.106266245,0.124736667,0.14917706,0.209948853,0.237189889,0.274192125,0.348011285,0.344752133,0.413628787,0.420345873,0.492295176,0.583778262,0.601888061
537.9836426,0.01936342,0.02782508,0.039697107,0.080111012,0.087395892,0.118381932,0.138765574,0.165070921,0.230926588,0.259870768,0.299265117,0.37638101,0.371579796,0.443000555,0.449611753,0.522658944,0.613558173,0.62990576
537.0028687,0.019579895,0.028950717,0.042429902,0.085408658,0.094968535,0.128613487,0.150625497,0.178157702,0.248752698,0.279337972,0.320160776,0.399313003,0.394236863,0.466529727,0.472714007,0.547460437,0.637676895,0.65100801
535.9840698,0.019729944,0.030092597,0.045576423,0.09103696,0.103044026,0.139646307,0.163444638,0.192165762,0.26700446,0.298753142,0.341749072,0.422901154,0.416051984,0.490236014,0.493942946,0.571507633,0.659387112,0.670873225
535.0028687,0.020030737,0.031415604,0.049362753,0.097729616,0.112086542,0.151613548,0.176549897,0.207113504,0.286832273,0.318226457,0.363483548,0.446440995,0.439030647,0.513881266,0.516952336,0.594547451,0.680392563,0.689594865
533.9837036,0.020258095,0.032994725,0.053394437,0.105255224,0.12167792,0.164266124,0.191072658,0.223107442,0.307164758,0.339954406,0.386256963,0.470919967,0.460420966,0.536489785,0.538719475,0.616848648,0.699190259,0.707374096
533.0020752,0.020556215,0.034554999,0.057345752,0.111602955,0.130700067,0.176082939,0.204441175,0.236743212,0.325416982,0.357741535,0.404210061,0.49104315,0.478613794,0.554343581,0.556163847,0.634007931,0.714453518,0.7206828
531.9824219,0.020856032,0.03674135,0.062675729,0.120241836,0.141651034,0.191584155,0.220593229,0.254379869,0.346531451,0.379749686,0.427267522,0.514281452,0.500174761,0.576307595,0.575871825,0.654030204,0.731008232,0.735644102
531.0003052,0.021321034,0.039024193,0.067782268,0.128999844,0.153063774,0.205108464,0.236239463,0.270444036,0.366737455,0.399033874,0.447306514,0.534956574,0.518467963,0.594810247,0.592819154,0.670228124,0.743868709,0.747322738
530.0180664,0.021582393,0.041254278,0.073082536,0.137352705,0.163939819,0.219224513,0.250945926,0.285786241,0.384948462,0.416755885,0.46611169,0.553591728,0.533911586,0.610999227,0.60722965,0.684452474,0.754415095,0.75666064
528.9976807,0.022109237,0.043889653,0.078204051,0.145603478,0.174309403,0.232109174,0.264553696,0.299409777,0.402324885,0.431949616,0.482171863,0.569613278,0.547869265,0.62346673,0.619155526,0.695484638,0.762838006,0.764089584
528.0148926,0.022527512,0.046626095,0.083426215,0.153098956,0.184310064,0.244806662,0.277149528,0.311960787,0.417980462,0.446904957,0.496740341,0.583658814,0.559957743,0.63525641,0.629475474,0.705022514,0.769720256,0.770043969
526.9942017,0.023182154,0.050114639,0.090404458,0.163391277,0.197087824,0.25946635,0.292758495,0.327815801,0.436034739,0.462768078,0.513060749,0.599125147,0.5730865,0.647288561,0.640186489,0.715177357,0.77679801,0.775865853
526.0109863,0.023884468,0.053541701,0.096818767,0.172956586,0.208517268,0.272953451,0.3066113,0.340971232,0.451212138,0.47607106,0.526196659,0.611387312,0.583315969,0.656896114,0.648337722,0.72273612,0.781558931,0.77934587
524.9897461,0.024433253,0.057222646,0.103078187,0.181797251,0.219280809,0.286166489,0.319283575,0.352819026,0.465655625,0.488453269,0.538162947,0.62204212,0.592303693,0.664714932,0.655160487,0.728587329,0.784672141,0.781815052
524.0060425,0.025339652,0.061205503,0.109901555,0.191819578,0.230818927,0.299076647,0.332445055,0.36497432,0.479213983,0.500162005,0.549101353,0.632139206,0.59969914,0.672018528,0.660757661,0.733361721,0.786816299,0.78365767
522.984436,0.0262502,0.065312371,0.116556376,0.20119521,0.241626278,0.311708361,0.34455359,0.375794828,0.490882069,0.509606361,0.55864507,0.640128613,0.606302142,0.677414417,0.665076971,0.736406088,0.788039088,0.783988476
522.0003662,0.027357312,0.069417298,0.123175278,0.20997043,0.251383394,0.322587043,0.354877055,0.38509199,0.501011431,0.517820239,0.56587863,0.646350563,0.610945523,0.681494653,0.668076396,0.738735616,0.788314939,0.783718467
521.0159912,0.028375858,0.073391914,0.129568443,0.218054503,0.260971904,0.332865179,0.3644633,0.393405318,0.510021031,0.524773538,0.572175145,0.651607037,0.614844084,0.68420887,0.669965565,0.739905655,0.787697375,0.782505214
519.9937134,0.029728204,0.078189984,0.13688536,0.227713883,0.271347851,0.343930334,0.374517113,0.401866615,0.518815219,0.531786859,0.578589201,0.656493306,0.618362665,0.68707484,0.671202838,0.740506768,0.786455035,0.780917645
519.0089722,0.031193621,0.082927182,0.143038094,0.235705569,0.280436307,0.353287846,0.382888615,0.408727646,0.525749564,0.536947727,0.58286643,0.659576297,0.620196939,0.687857151,0.671649456,0.739992321,0.784414172,0.778686285
517.9862061,0.032707959,0.087015986,0.148457661,0.242502362,0.287867338,0.361066014,0.389538765,0.414053977,0.531262159,0.540619195,0.586016059,0.661405385,0.621088088,0.687932551,0.671150684,0.738685429,0.781750977,0.775986314
517.0010986,0.034446705,0.091556914,0.154262617,0.249692053,0.295304239,0.368730545,0.396205187,0.419266492,0.536066771,0.543891549,0.588645339,0.662870526,0.621790528,0.687911928,0.670428276,0.736992836,0.779035032,0.772592783
516.0157471,0.03632028,0.096034326,0.159976676,0.256608635,0.302508175,0.375818819,0.402090192,0.423816174,0.54030925,0.546682835,0.590581954,0.663807213,0.621967495,0.68729192,0.668988943,0.735379636,0.776193678,0.769759536
514.9923096,0.038686104,0.100948133,0.166059092,0.264031738,0.310194641,0.383133441,0.407943577,0.428061009,0.543959975,0.548648477,0.591875613,0.663964212,0.6210922,0.68554461,0.66681385,0.732381165,0.772270441,0.765731037
514.0065308,0.041097976,0.105501264,0.171773613,0.27060312,0.316880345,0.38941586,0.412715554,0.431389839,0.546706736,0.550028086,0.59216392,0.663307726,0.619641602,0.683566809,0.664044857,0.728925228,0.767937362,0.761438608
512.9825439,0.043726385,0.109850846,0.176572919,0.27648297,0.322505504,0.394307941,0.416518569,0.433967263,0.548537314,0.550723672,0.592200816,0.662218571,0.61818254,0.681375206,0.661314189,0.725657225,0.76424551,0.75758183
511.9963989,0.046235852,0.113522835,0.180745989,0.281191558,0.327144086,0.398414493,0.419383168,0.435639828,0.549780607,0.550941646,0.591736138,0.660802722,0.616900384,0.679077625,0.658909023,0.722618341,0.76031816,0.754359186
511.0099182,0.048755355,0.116944931,0.184641749,0.28553614,0.33123523,0.402164102,0.421969622,0.437196225,0.550600886,0.550537527,0.591181576,0.659345508,0.614578366,0.676701903,0.656209409,0.719477415,0.756849647,0.750792742
509.9854126,0.051830158,0.120865226,0.188760996,0.290308714,0.335662574,0.405526131,0.424233317,0.438351572,0.550917566,0.550047219,0.590084672,0.657263696,0.61200738,0.673622489,0.652627647,0.715569317,0.752670169,0.746806085
508.9985657,0.055221859,0.124664739,0.192837641,0.294662505,0.339653879,0.408724695,0.426275373,0.439150184,0.551009715,0.549237311,0.588395596,0.655109882,0.609740794,0.670592487,0.64945519,0.712225616,0.748584032,0.742885172
508.0115356,0.058229897,0.12762554,0.195986018,0.298215598,0.342934907,0.411216199,0.427569926,0.439459413,0.550679326,0.548232496,0.586926699,0.652564764,0.607058108,0.667534173,0.646055162,0.70828855,0.745290697,0.739359856
506.9863586,0.061262403,0.130371243,0.198847354,0.301645458,0.345708102,0.41324088,0.42859906,0.439672083,0.550097525,0.546695888,0.58495003,0.650236309,0.604484201,0.664831102,0.643212378,0.705324054,0.741824985,0.736009896
505.9988098,0.06427937,0.132723212,0.201402605,0.304526329,0.347869307,0.414599717,0.42916441,0.439593315,0.549214125,0.545487225,0.58303684,0.647868693,0.602260888,0.662040472,0.640520096,0.702005148,0.739035904,0.733097732
505.0112,0.06749288,0.135221273,0.204094797,0.307466358,0.350132793,0.416163176,0.429813951,0.439327389,0.548095226,0.543925643,0.581028879,0.645241797,0.59960413,0.659031868,0.637364805,0.698648334,0.73593688,0.730247498
503.9853516,0.071339451,0.137551069,0.206682697,0.310189992,0.35226208,0.417502046,0.429992795,0.438717902,0.547262073,0.542170882,0.578819454,0.642625034,0.596881449,0.656101346,0.634372711,0.69558084,0.732798696,0.727781057
502.9971924,0.074629493,0.13957569,0.209045723,0.312660694,0.35413751,0.418436647,0.430035532,0.43810305,0.54601717,0.540300906,0.576799452,0.640492022,0.594274104,0.653472304,0.631451845,0.692754686,0.730117202,0.725077748
502.0089111,0.077429913,0.141204596,0.210904464,0.314738244,0.355318755,0.419032931,0.429884493,0.437537015,0.544784188,0.53875947,0.574772656,0.63799113,0.5918082,0.651029408,0.628928244,0.689949989,0.727637827,0.722777724
500.9823914,0.080406807,0.142642856,0.212747783,0.316679269,0.356514692,0.419428289,0.429489523,0.436556786,0.543053865,0.537013829,0.572636962,0.635399342,0.589869201,0.648510575,0.626363218,0.687670887,0.725328326,0.720786035
499.9936829,0.083485596,0.144172117,0.214819089,0.31866461,0.357720107,0.419815838,0.429137886,0.435760975,0.541578889,0.535116792,0.5706743,0.633154273,0.587366223,0.646232367,0.624133647,0.68534267,0.723731816,0.719104111
499.0047913,0.086355485,0.145547733,0.216506973,0.320326716,0.358502954,0.419904411,0.428628832,0.434826344,0.540213108,0.533487558,0.568820179,0.631006897,0.585133314,0.644088864,0.622052372,0.68335557,0.721696496,0.717502892
498.0157166,0.089033388,0.146727935,0.218142703,0.321825326,0.359214336,0.419828862,0.42793259,0.433607101,0.538580418,0.531671166,0.566828847,0.628807008,0.583086371,0.641933382,0.619965673,0.681111097,0.72010529,0.716005564
496.9883118,0.091464393,0.147837684,0.219412416,0.323152185,0.359712094,0.419642359,0.426979482,0.432528406,0.53702426,0.53014797,0.565031946,0.626775444,0.581157148,0.639768839,0.618093252,0.679652095,0.718579471,0.714942634
495.9987793,0.093613066,0.148750126,0.220806867,0.32414639,0.360067159,0.419650853,0.42646727,0.431569338,0.5356673,0.528588414,0.563302934,0.625327468,0.579902649,0.638350129,0.616619349,0.678270161,0.717682004,0.71408546
495.0090942,0.095772259,0.149727866,0.22251676,0.325367034,0.360560536,0.419437408,0.42581597,0.430537522,0.534171879,0.527088165,0.561673284,0.623437166,0.578102887,0.637066603,0.61526978,0.67684859,0.717072547,0.713821948
493.9810791,0.097881041,0.150875598,0.223919749,0.3266339,0.360967845,0.419103146,0.424966484,0.429626167,0.532902002,0.52553755,0.560190439,0.621857166,0.576833546,0.635870457,0.614119709,0.675731182,0.716526389,0.713419259
492.9909973,0.099644229,0.151686177,0.225049958,0.327602178,0.360983819,0.418502897,0.424077183,0.428503573,0.531576276,0.524164856,0.558666825,0.620159328,0.575576305,0.634852409,0.61290139,0.67491138,0.716095746,0.713101029
492.0005493,0.100956492,0.152498245,0.226019636,0.328161359,0.360905647,0.418048024,0.423231065,0.427603543,0.530346692,0.522892892,0.557409287,0.61895144,0.574732959,0.633455336,0.611977458,0.674218059,0.715579867,0.713018894
491.0100098,0.102127768,0.153293103,0.227020219,0.328391075,0.361170709,0.417812079,0.422708392,0.426656812,0.529329181,0.521875322,0.556661487,0.618250907,0.574160934,0.632741511,0.611698926,0.6737988,0.715935767,0.713457167
489.9812012,0.103556976,0.154247582,0.228373036,0.329220355,0.361187577,0.417192996,0.421740651,0.425748974,0.527962804,0.520903409,0.555557072,0.617326498,0.573600769,0.632706046,0.611211538,0.673883021,0.71667546,0.714362741
488.9902039,0.104592957,0.15514636,0.229538232,0.330030471,0.361036778,0.416547954,0.42096892,0.425004244,0.527025163,0.520014286,0.554728448,0.616599739,0.573251724,0.632603228,0.611134231,0.674344599,0.717453539,0.715300381
487.999115,0.105240382,0.155925185,0.230366305,0.33037442,0.360807687,0.416085511,0.420220912,0.424058735,0.526171565,0.519234955,0.554195404,0.616244555,0.572726846,0.632217288,0.611120403,0.674525321,0.718197525,0.716421068
487.007782,0.105987124,0.156797022,0.231248215,0.330472589,0.360848308,0.415894151,0.419724077,0.423612893,0.525496662,0.518914223,0.55403316,0.616188645,0.572987497,0.632377029,0.611620307,0.67514497,0.719507217,0.717900753
486.0161743,0.1068772,0.157862783,0.232437909,0.331193179,0.36080578,0.415604174,0.419572026,0.42327711,0.525247872,0.518889904,0.55411768,0.616662085,0.573680461,0.633945644,0.612800002,0.676994145,0.722147822,0.720600665
484.9863586,0.107418098,0.158814341,0.2334539,0.33200109,0.36056906,0.415095359,0.418734729,0.423013955,0.524713755,0.518654883,0.553965807,0.616911471,0.574219763,0.634726405,0.613557994,0.678481162,0.724191308,0.723036051
483.9944153,0.107714765,0.159595475,0.233977929,0.331798792,0.360586613,0.415133119,0.418530703,0.422680646,0.524650693,0.518699884,0.55422473,0.617688775,0.574889123,0.63478303,0.614595771,0.679478228,0.725794017,0.725014269
483.0022583,0.107945673,0.160273284,0.234355062,0.33137393,0.360459328,0.414874792,0.418334097,0.422246426,0.52453047,0.518926144,0.554614246,0.618235946,0.575866938,0.636226893,0.615920723,0.681052864,0.727927983,0.727303803
482.0099182,0.108411677,0.161288247,0.235466272,0.332242072,0.360695809,0.414944321,0.418376744,0.422597826,0.52497083,0.519532144,0.555547655,0.61946547,0.577199817,0.638015986,0.617806554,0.683542669,0.731268406,0.7307446
481.017395,0.108651601,0.162102565,0.236134902,0.332522631,0.360369533,0.41466549,0.418450177,0.422655553,0.525333166,0.520210445,0.556653678,0.621001005,0.578946233,0.640125096,0.619838953,0.686277807,0.734819889,0.73436743
479.9864502,0.108943254,0.162852809,0.237043977,0.33300519,0.360549688,0.41473037,0.418427944,0.422943443,0.526082516,0.521427512,0.558034957,0.622904122,0.580860436,0.642803371,0.622639418,0.689584553,0.738939583,0.738813877
478.9935303,0.109250344,0.163741246,0.237574026,0.333192766,0.360758692,0.414904892,0.418688923,0.423731506,0.527009368,0.522587776,0.55962801,0.624780655,0.582735539,0.645153821,0.625140369,0.692752957,0.742726386,0.742962003
478.0004272,0.109600894,0.164702654,0.238402218,0.333662391,0.361182153,0.415427208,0.419240475,0.424449682,0.528289259,0.524170399,0.561329603,0.627111018,0.585195184,0.647708774,0.628209889,0.696157157,0.747086704,0.747180343
477.007019,0.109954298,0.16549845,0.238976866,0.334046185,0.361470997,0.41592294,0.419870287,0.425225407,0.529309452,0.525629938,0.563020408,0.629631281,0.587387025,0.650721729,0.631044567,0.699777007,0.751478434,0.75182724
476.0135193,0.110432386,0.166471154,0.239770323,0.334771097,0.3620089,0.416582108,0.420779824,0.426456213,0.531161845,0.527759135,0.565571725,0.632475734,0.590487123,0.654224575,0.63484925,0.703961909,0.756495476,0.757100523
474.9816589,0.111154646,0.167512059,0.240555286,0.335471988,0.362792224,0.417476594,0.422022671,0.427993059,0.533321083,0.530238867,0.568381131,0.636123657,0.59409982,0.658554971,0.639137089,0.709295571,0.762668073,0.763220847
473.9876709,0.111486897,0.168320373,0.241350919,0.3360627,0.363359094,0.418409526,0.42307654,0.429342032,0.535284817,0.53263396,0.571150363,0.639495075,0.597481608,0.662423432,0.643035531,0.713882089,0.768211961,0.768741071
472.9935913,0.111802526,0.169178307,0.242064431,0.336694598,0.364031076,0.419476688,0.424373329,0.430925876,0.53737545,0.535061538,0.574100733,0.642874062,0.60057956,0.666288376,0.647145867,0.718370438,0.773356199,0.774063647
471.9993286,0.112184465,0.16993323,0.242710039,0.33737269,0.364922255,0.420661777,0.425720036,0.432529151,0.539706349,0.537712395,0.576897919,0.646370351,0.604413569,0.670240402,0.651365221,0.72324276,0.779040217,0.780245125
471.0048218,0.112754442,0.170880109,0.243470088,0.338234544,0.365952998,0.422170788,0.427506626,0.434478909,0.542664766,0.540988505,0.580467463,0.650676429,0.608499825,0.675227284,0.656344056,0.729115963,0.785578072,0.786767542
470.0101624,0.113459364,0.171914145,0.244201675,0.33950001,0.367328346,0.424012452,0.429688722,0.437167794,0.545988679,0.544666469,0.58453244,0.655568242,0.61326462,0.68066752,0.661936581,0.735443115,0.792868912,0.794090211
469.0152893,0.114052929,0.172955617,0.245259807,0.340312272,0.368668497,0.42594099,0.431747019,0.439494968,0.549115419,0.548151851,0.588568151,0.660293222,0.617794633,0.685972214,0.667321563,0.741410196,0.799840808,0.80088222
467.9819031,0.114809863,0.173773333,0.246182591,0.341596544,0.370195389,0.427953064,0.434058785,0.442194104,0.552664995,0.551843047,0.592679918,0.665040731,0.622485042,0.691444278,0.672444463,0.74756217,0.80679071,0.808367968
466.9866638,0.115378201,0.174587593,0.24688901,0.342510253,0.371474087,0.429671973,0.436141938,0.444586396,0.555735707,0.555372357,0.596580863,0.669668257,0.626776874,0.696110547,0.677585244,0.75344646,0.81321317,0.814748406
465.9912415,0.116234265,0.175641254,0.247956187,0.343992025,0.373424858,0.432343304,0.438884735,0.447592974,0.559508145,0.559714019,0.601200521,0.675237238,0.6319471,0.70230639,0.683730006,0.76073432,0.821110368,0.822964072
464.9955444,0.116949372,0.176560327,0.249021024,0.345424235,0.375325799,0.434755921,0.441804677,0.450794965,0.563965976,0.564174831,0.606406331,0.680943191,0.637551069,0.708438158,0.69023186,0.767928004,0.829504609,0.831597447
463.9997253,0.117787994,0.177447021,0.250068545,0.346870273,0.377363712,0.437483639,0.444873869,0.453917801,0.568052471,0.568886101,0.61159122,0.68724668,0.643465877,0.71510309,0.696576834,0.775555491,0.837888718,0.83987695
463.0037537,0.118496656,0.178302899,0.251057506,0.348471463,0.379389346,0.44022885,0.447879046,0.457492828,0.572364926,0.573643744,0.616517484,0.693020344,0.648918331,0.721546948,0.702946484,0.782234728,0.846273959,0.84893316
462.0075378,0.119233109,0.17925781,0.252313346,0.350359082,0.381517202,0.443139106,0.451121181,0.461253554,0.576944351,0.578657687,0.62198031,0.699222088,0.654578805,0.728580356,0.709897876,0.790519953,0.855622172,0.857676923
461.0111389,0.12023142,0.180442706,0.253691137,0.352555752,0.384284198,0.446664572,0.455124736,0.465474278,0.582547188,0.584740996,0.628593326,0.70680505,0.661856294,0.736681104,0.717828035,0.800297439,0.86585474,0.868715704
460.0145264,0.121045597,0.181554377,0.254997939,0.354474336,0.386927068,0.450253964,0.459058255,0.469525933,0.587813914,0.590570808,0.635005832,0.714040756,0.669124961,0.744414926,0.725579083,0.808954537,0.875866354,0.879822612
459.0177917,0.122322105,0.182875186,0.256609023,0.356811732,0.390118897,0.454405278,0.463284522,0.474378586,0.593946934,0.597273052,0.642445564,0.722147763,0.67680347,0.753628612,0.73479259,0.819532633,0.887933314,0.892133236
457.9824219,0.123290516,0.183944076,0.258162767,0.359235972,0.393246055,0.458286345,0.467962533,0.478989035,0.60057205,0.604023099,0.649395108,0.73058039,0.684581637,0.76280719,0.744414926,0.830246747,0.900228739,0.904460251
456.9852905,0.124457941,0.185089201,0.259845346,0.36176616,0.396564037,0.462550819,0.472457916,0.483885855,0.606779158,0.610475004,0.656951606,0.738753796,0.692649007,0.771938801,0.752988935,0.841062605,0.911856175,0.916044951
455.9880066,0.125529066,0.186407939,0.26175192,0.364545196,0.400219947,0.466965765,0.477421522,0.489016622,0.613256753,0.617635429,0.664581835,0.747611225,0.700671732,0.78130734,0.762706876,0.852077544,0.924207509,0.928494811
454.9904175,0.126681492,0.187698916,0.263573855,0.367434382,0.403731078,0.471650362,0.482221633,0.494291902,0.619872153,0.624651849,0.672558546,0.75609684,0.709051311,0.790764451,0.771897614,0.861807168,0.936021149,0.940026105
453.9927063,0.128014773,0.189110473,0.265799731,0.370604903,0.407669157,0.476653606,0.487324029,0.499738634,0.626981199,0.631696463,0.679749191,0.764245272,0.716880024,0.799407661,0.780472279,0.871993184,0.947152555,0.951134026
452.9948425,0.129193872,0.190616041,0.267743886,0.373623163,0.411161155,0.480805069,0.492004484,0.504503548,0.632822394,0.637453437,0.68644625,0.771285236,0.723466218,0.80668968,0.78789258,0.879930675,0.956044257,0.959776759
451.9967957,0.13047792,0.191874653,0.269573778,0.37616539,0.414425463,0.484877914,0.495902449,0.508392811,0.638554335,0.642593205,0.692022264,0.77734375,0.729544818,0.813063562,0.794436395,0.887586951,0.963902295,0.967606008
450.9985046,0.131762207,0.193403468,0.27187714,0.379538,0.41845572,0.489389867,0.500994921,0.513097704,0.644116581,0.648297131,0.698282838,0.783920467,0.735533893,0.820315063,0.801066995,0.894818842,0.971856177,0.975488067
450.000061,0.133213669,0.195018545,0.274197817,0.382830858,0.422123939,0.493812829,0.5053792,0.517508149,0.649069488,0.653627396,0.70358634,0.789766908,0.7410568,0.826113045,0.807073355,0.901746512,0.979662716,0.98298347
449.0014648,0.134676501,0.196600735,0.276467234,0.386007011,0.425651312,0.497781187,0.509278476,0.521351934,0.654243708,0.658404231,0.70875001,0.7955091,0.746290982,0.831755579,0.813053608,0.908071041,0.986619592,0.989918888
448.002655,0.136007205,0.198087081,0.278629363,0.388889641,0.429143399,0.501691341,0.513091326,0.52501744,0.658742964,0.662755251,0.713533163,0.800965309,0.751489759,0.837472379,0.818371773,0.914565325,0.993934035,0.997528791
447.0036316,0.137335271,0.199616224,0.280726045,0.391785324,0.43234244,0.505177319,0.516435146,0.528480828,0.662860751,0.667194128,0.718032002,0.805927813,0.756420195,0.842852414,0.824032366,0.920986891,1.001449347,1.004637718
446.0044556,0.139044613,0.201389596,0.283168554,0.394774407,0.43575272,0.509287715,0.520323575,0.532157421,0.667530954,0.671748817,0.723468065,0.81205076,0.761735797,0.849284291,0.830183864,0.92821753,1.009251595,1.012934685
445.0050964,0.14058429,0.203173503,0.285688669,0.397963584,0.43920669,0.512957096,0.524122715,0.535926521,0.672161281,0.676812887,0.728692293,0.818060815,0.767715573,0.855755568,0.836674035,0.935725451,1.017252207,1.02131629
444.0055847,0.142141715,0.204823539,0.288149804,0.400994659,0.442643583,0.516671598,0.527919948,0.540124059,0.677065015,0.681594133,0.73404485,0.824295461,0.773353696,0.862515569,0.843598008,0.943232358,1.026927233,1.031087875
443.0058289,0.143783242,0.206596673,0.290723532,0.404247493,0.445944876,0.520681143,0.531937659,0.544051111,0.682140291,0.687169969,0.739912808,0.831016183,0.779668629,0.870050371,0.851253867,0.952205002,1.036495805,1.040015459
442.0059814,0.145439938,0.208506525,0.293266445,0.407421708,0.449151754,0.524585903,0.535886645,0.548220754,0.687141955,0.692543805,0.745664358,0.838026464,0.786369205,0.877252221,0.858785629,0.960655689,1.045873284,1.049579501
441.0058899,0.147098064,0.210297272,0.295541734,0.410341591,0.452638358,0.528479874,0.539785504,0.552057564,0.692594707,0.698099792,0.751987338,0.844840407,0.792780757,0.884851873,0.866403043,0.969139636,1.055416226,1.058810711
440.0055847,0.148851275,0.212198094,0.298088729,0.413295895,0.455949754,0.532481909,0.543932259,0.556414604,0.697815836,0.703864396,0.758084059,0.852109909,0.799826026,0.892772794,0.874033868,0.977980495,1.064581037,1.068730354
439.0051575,0.150480151,0.213968784,0.300629467,0.416475952,0.459512502,0.536359906,0.548172653,0.560553014,0.70363009,0.710051298,0.764520049,0.859680831,0.806519687,0.900863648,0.882412374,0.98724848,1.075003743,1.079564333
438.0045776,0.152059659,0.21582374,0.303137302,0.419686616,0.463081092,0.540595353,0.552318633,0.565354347,0.709411144,0.71601063,0.771296918,0.866868377,0.814439118,0.909274638,0.890598416,0.99653852,1.08530736,1.089933515
437.0038147,0.154144466,0.217922509,0.30577597,0.422985852,0.466912478,0.545233786,0.557237029,0.57053566,0.71582377,0.722923756,0.778718948,0.875879705,0.82231313,0.91810441,0.89948225,1.006540537,1.096131921,1.100356936
436.0027771,0.155991614,0.220018789,0.308526695,0.426434487,0.470761329,0.549750269,0.562165678,0.575340509,0.722852886,0.730031133,0.786328614,0.884400845,0.830700874,0.927716553,0.909107506,1.01746726,1.107657433,1.11211288
435.0016785,0.157917216,0.222107455,0.311185271,0.430181325,0.474689692,0.554347277,0.566895664,0.580615819,0.728921652,0.736774921,0.793641567,0.892971754,0.838502348,0.936913431,0.917915642,1.027620792,1.119072676,1.122894883
434.0003662,0.159882098,0.224282786,0.314088672,0.433664143,0.47893855,0.559352875,0.572089732,0.585948944,0.735991597,0.74413538,0.801804185,0.901921928,0.847198486,0.946203053,0.927732945,1.037943721,1.12983346,1.133895397
432.9988708,0.161703989,0.226304919,0.316822469,0.436917812,0.482731223,0.563880324,0.577051997,0.59130156,0.743064165,0.751095891,0.809288681,0.910372376,0.855484188,0.954892397,0.936503768,1.048433661,1.140648007,1.145251036
431.9971619,0.163859054,0.228659824,0.319870651,0.440883726,0.487250507,0.569462895,0.583132446,0.597164869,0.750865877,0.759211719,0.818386734,0.92077297,0.864991427,0.966765404,0.94717437,1.06058979,1.15313077,1.157281876
430.9953308,0.166112557,0.231214717,0.32310912,0.444914222,0.491900682,0.575075805,0.589042306,0.604000568,0.758970261,0.767352164,0.827195346,0.930418313,0.87405926,0.976823151,0.957589388,1.071643829,1.165344596,1.168918967
429.9932861,0.168230683,0.233356148,0.325982362,0.448736936,0.496326745,0.580266655,0.594716966,0.609517157,0.766176045,0.775365412,0.835612893,0.939353943,0.88256073,0.98641628,0.966730893,1.081359863,1.176025987,1.179683208
428.9910583,0.170350477,0.235562563,0.329033554,0.452467471,0.500591993,0.585496724,0.599895299,0.615248501,0.773772538,0.782783568,0.843209863,0.948602557,0.891108275,0.995471776,0.975376904,1.092166662,1.186595798,1.189684272
427.988678,0.172394782,0.238038167,0.331985235,0.456489086,0.505322337,0.590998232,0.605709076,0.621056259,0.781046033,0.790325642,0.851086497,0.957416058,0.899202406,1.004688263,0.984477043,1.101617932,1.196536183,1.199594378
426.9861755,0.17480427,0.240450084,0.335373014,0.460783631,0.5099141,0.597044051,0.612023532,0.627197325,0.788692713,0.798281074,0.859935939,0.966592372,0.908102274,1.014012456,0.993649125,1.111900806,1.207367778,1.209930778
425.9834595,0.177104384,0.243015647,0.338497132,0.465057403,0.514897227,0.6027807,0.617850184,0.633586586,0.796480775,0.805907548,0.868231952,0.975880206,0.916624129,1.023489833,1.002348781,1.122022033,1.216828465,1.219623923
425.019104,0.179190502,0.245206162,0.341604561,0.468822271,0.519422531,0.607799053,0.62319392,0.638787508,0.803140581,0.813019455,0.875475943,0.983633936,0.923938274,1.031366467,1.009989858,1.130342603,1.225471735,1.228389621
424.0160217,0.181326062,0.247571081,0.344551235,0.472692698,0.523842514,0.613084316,0.628510118,0.644411683,0.810017586,0.819629669,0.882568538,0.991610766,0.931139529,1.03924334,1.018020868,1.138349056,1.234023094,1.236488223
423.0127563,0.183484852,0.250034243,0.34766084,0.476656199,0.528486013,0.618476093,0.634010553,0.649971724,0.816883683,0.826649725,0.890147388,0.999848247,0.938703179,1.047126293,1.025887489,1.147231579,1.243381977,1.245769024
422.0093689,0.186075226,0.252779901,0.351488322,0.481386274,0.533593833,0.624653697,0.640086949,0.656331182,0.824809313,0.834716678,0.898456574,1.009243965,0.947177887,1.056356072,1.034768701,1.156597972,1.253008366,1.255352378
421.0057373,0.188518673,0.255518377,0.354815602,0.48559472,0.538655937,0.630665779,0.646133125,0.662324846,0.832665801,0.842192292,0.906331718,1.017890334,0.955369473,1.064815283,1.043179631,1.166072607,1.262309074,1.264394879
420.0019836,0.19097577,0.258185685,0.358289123,0.490020126,0.543630302,0.636093915,0.65212512,0.668177068,0.839968503,0.849755347,0.914175391,1.025990725,0.963065207,1.073434591,1.051295757,1.175164342,1.272190213,1.273629189
418.9980774,0.193280533,0.260860264,0.361819983,0.494420856,0.548640966,0.642192841,0.658047676,0.674125075,0.847681463,0.857048929,0.92209053,1.034703374,0.970564961,1.081406832,1.059253097,1.183797598,1.28130126,1.282981753
417.993988,0.195907816,0.263579965,0.365254432,0.498917878,0.553484798,0.647805691,0.663659334,0.680158496,0.85466218,0.86427635,0.92939049,1.042569637,0.978064358,1.089686394,1.066918015,1.192463279,1.290969253,1.291402578
416.9897156,0.198260099,0.26616782,0.368687391,0.503454506,0.558806002,0.65411514,0.670330763,0.686316371,0.862661719,0.872208715,0.937789559,1.05234623,0.986853123,1.099617481,1.076292396,1.202914119,1.300864697,1.302113891
415.98526,0.201325566,0.269690394,0.373019129,0.509000182,0.564975083,0.661224723,0.677357853,0.693698824,0.871554196,0.880900264,0.947749794,1.062183142,0.996290863,1.109402895,1.086363196,1.213368177,1.312866688,1.313392401
414.9807129,0.204090044,0.272620946,0.376850277,0.513770402,0.570372522,0.667784274,0.683912098,0.700116813,0.879690528,0.888791025,0.95580858,1.071811676,1.004540205,1.118754864,1.095018864,1.223081708,1.322753906,1.322474957
414.0145874,0.206515089,0.275555551,0.380499005,0.518431604,0.575305343,0.673555017,0.690117061,0.706279516,0.887221873,0.896201134,0.963178814,1.08015871,1.012697458,1.127486467,1.103103399,1.231185079,1.332518101,1.332635045
413.009613,0.209103286,0.278497994,0.384295613,0.523258448,0.581022739,0.680153787,0.696613014,0.712563634,0.894887269,0.904212892,0.9711622,1.088679194,1.020821333,1.136066198,1.112027645,1.241429925,1.342553854,1.341179132
412.0045471,0.212248385,0.281642169,0.388712406,0.528623283,0.587028265,0.68673867,0.703594923,0.71971345,0.903055668,0.912722826,0.980661094,1.098846316,1.029627562,1.14591682,1.122107029,1.253077269,1.353355289,1.35251534
410.9992371,0.215465754,0.285112143,0.393235773,0.534836114,0.593750775,0.69503504,0.711477637,0.727549136,0.912677407,0.921299696,0.990139306,1.109188795,1.039494395,1.156629682,1.131816268,1.263696551,1.364908814,1.365355015
409.9938049,0.218193233,0.288419336,0.397336364,0.539692044,0.599428415,0.701335788,0.718128264,0.733924806,0.920902133,0.930216134,0.998642385,1.118717551,1.047402501,1.165455461,1.141399026,1.273509502,1.37524569,1.375786543
408.9881287,0.221183419,0.291619241,0.401531339,0.545086741,0.605554044,0.708187401,0.72482425,0.740817666,0.929089427,0.938524187,1.006766915,1.127527595,1.056627989,1.175315022,1.150190353,1.28332901,1.38625288,1.384495616
407.9824524,0.224405274,0.295043737,0.405859172,0.550490856,0.611595631,0.71555239,0.731717706,0.747654796,0.937593579,0.94679904,1.015972257,1.138061762,1.065534949,1.185144782,1.160155177,1.294192433,1.396779299,1.396524549
407.0151978,0.227818936,0.298659623,0.410862953,0.556829512,0.618572056,0.723128498,0.739973128,0.755678594,0.946904421,0.956629276,1.026209831,1.148351669,1.075137019,1.19519937,1.170354486,1.305995941,1.410164595,1.407845378
406.0090637,0.23165445,0.303013682,0.416235983,0.564128578,0.625970006,0.731655359,0.748371124,0.764528751,0.957620382,0.966944695,1.037369132,1.16094327,1.086352348,1.20758605,1.182754874,1.318638086,1.423085093,1.421327233
405.0028076,0.23565039,0.307190239,0.421922177,0.570537448,0.633512616,0.740439236,0.756604493,0.772152603,0.967048645,0.976255775,1.047201872,1.171089053,1.095788956,1.219358087,1.193069339,1.330762625,1.436462045,1.434070706
403.9963989,0.238476887,0.310640097,0.426256567,0.57609129,0.639866173,0.747900665,0.763963819,0.779330194,0.976022363,0.985879183,1.056384325,1.181995273,1.105383754,1.228893042,1.202820182,1.341404676,1.44661653,1.444526076
402.9897461,0.242127046,0.31460461,0.431237489,0.582654119,0.646872401,0.755711794,0.771924794,0.787238896,0.985664129,0.995460808,1.066853881,1.192564487,1.11595881,1.24006319,1.213072896,1.352730274,1.459697723,1.458353519
401.9830017,0.246243641,0.319009006,0.437084645,0.589937747,0.654846311,0.76481092,0.781118393,0.795926333,0.996376395,1.005800009,1.077403069,1.205219507,1.126619339,1.252050996,1.225689888,1.367129326,1.473795772,1.469762206
401.0148315,0.250741094,0.323676646,0.44343853,0.59759438,0.663256407,0.774591208,0.790529549,0.805050015,1.008081436,1.01728797,1.089579225,1.21815908,1.138220549,1.264963031,1.237875819,1.380768299,1.487572789,1.485489845
400.0077515,0.254784972,0.328246713,0.449241877,0.604976654,0.671185195,0.783364952,0.799144447,0.814072013,1.018921494,1.027938604,1.100325823,1.229788423,1.148729205,1.276618004,1.249554157,1.393763185,1.499699116,1.498000741
399.0005188,0.258644551,0.332653284,0.454860866,0.611850858,0.678705216,0.791713893,0.807521999,0.82236445,1.028384805,1.038511753,1.11137557,1.241301537,1.16010046,1.288588643,1.260617614,1.405514359,1.514175773,1.512536764
397.993103,0.26275304,0.336962044,0.460400373,0.618705928,0.686377406,0.800087452,0.81603986,0.830968618,1.038628221,1.047744989,1.120928764,1.253410339,1.170518517,1.300755978,1.272462487,1.418364644,1.526747823,1.524727583
396.9855652,0.267601848,0.342262894,0.466927916,0.62667346,0.694956124,0.810095906,0.825737715,0.840499342,1.050315976,1.06008327,1.1340276,1.266459942,1.182880282,1.314185977,1.28453505,1.432965875,1.541528106,1.539871812
396.016571,0.272688597,0.347961217,0.473542601,0.635431647,0.704381108,0.820629895,0.836551547,0.850660145,1.062286854,1.071330786,1.146847844,1.279772043,1.195564032,1.328299046,1.299467683,1.447919726,1.556923747,1.553535581
395.0086975,0.277504563,0.35316965,0.480491489,0.643748105,0.712717056,0.830946267,0.846438408,0.860239148,1.073959947,1.082993507,1.158736825,1.293334842,1.20768702,1.341021895,1.311575294,1.462203503,1.572795272,1.570208788
394.0006714,0.281709015,0.357823432,0.486119777,0.650663853,0.720999241,0.839290202,0.85437572,0.868893862,1.084022045,1.093025208,1.169647694,1.30480969,1.217444181,1.352859259,1.323396206,1.474069476,1.584627271,1.582636237
392.9924316,0.28704071,0.36315915,0.492862731,0.658534825,0.729467332,0.849370837,0.864819288,0.878328145,1.094781518,1.10441196,1.181484103,1.318215728,1.22989738,1.365397811,1.335422873,1.48765254,1.598214746,1.596215248
391.9840698,0.292221785,0.369041264,0.50057441,0.667957366,0.738958418,0.859802127,0.874797404,0.888934553,1.107961178,1.117362618,1.194343805,1.332605362,1.242686868,1.380128384,1.350511074,1.504067302,1.615137458,1.613021016
391.0143433,0.297089189,0.374371857,0.506786466,0.675659716,0.747937262,0.86970228,0.884263217,0.897921205,1.119517565,1.128806829,1.206909537,1.34604156,1.25416708,1.393408418,1.363001943,1.516854882,1.631025434,1.626716375
390.0057068,0.30322662,0.381258875,0.514811456,0.68581754,0.758601904,0.881368995,0.896399498,0.90985328,1.133322239,1.142298222,1.220947623,1.360913754,1.268822908,1.409527779,1.377521157,1.533184409,1.64767909,1.644491792
388.9968262,0.308837682,0.386927992,0.522658944,0.694648445,0.768240869,0.89210254,0.906341851,0.919670284,1.144735694,1.15422833,1.233383179,1.375053644,1.281067133,1.422014236,1.391538382,1.546543241,1.662856936,1.660395741
387.987854,0.31445396,0.392881274,0.529723644,0.703756392,0.777153134,0.902856529,0.915907621,0.929508209,1.157152414,1.166541815,1.24553144,1.389369965,1.293562174,1.437001467,1.404959559,1.563455105,1.678594708,1.673809171
387.0175171,0.320364535,0.399149686,0.537258744,0.712740183,0.786663353,0.913737893,0.926732183,0.9400751,1.170054793,1.178937912,1.258270621,1.402796984,1.305414438,1.448215842,1.418370366,1.578228593,1.692806602,1.690527916
386.0082092,0.327086538,0.406439573,0.545855641,0.722983182,0.798320949,0.925643086,0.938983023,0.95204407,1.183709264,1.192324281,1.27333951,1.417972326,1.320900798,1.4657619,1.433922887,1.594623804,1.709371924,1.706872463
384.9987488,0.333855271,0.413538992,0.554560244,0.733287752,0.809043288,0.938134253,0.950754166,0.963164508,1.197195172,1.205590963,1.287041187,1.433688164,1.334541321,1.481535912,1.448413134,1.610910654,1.727515697,1.721811056
383.9891357,0.340251803,0.420042366,0.562233746,0.743281126,0.818946481,0.949506879,0.96138227,0.974045157,1.210287929,1.218577266,1.300189614,1.448075294,1.346980333,1.494940996,1.460648894,1.627220869,1.743279338,1.738218069
383.018219,0.345633447,0.425926536,0.569502771,0.751442909,0.828204572,0.959466934,0.971198201,0.983036578,1.222080708,1.229381204,1.313355684,1.461404085,1.35845542,1.507738233,1.474608779,1.642018199,1.75801754,1.754581332
382.0083008,0.353163004,0.433705419,0.578424335,0.76259464,0.839393675,0.972512722,0.984064996,0.995859623,1.236398935,1.244855404,1.327471614,1.479357123,1.373814106,1.524714112,1.491225362,1.65784061,1.774526,1.769250512
380.9981995,0.360539228,0.441484094,0.588617921,0.77369982,0.851160884,0.985200286,0.9959144,1.008223414,1.251694083,1.259247303,1.342205524,1.49590528,1.389582515,1.54224956,1.507029057,1.675685763,1.795048237,1.79092288
379.9879761,0.368371874,0.449584961,0.598336339,0.785648048,0.863550365,0.999002576,1.009444475,1.021092653,1.266786337,1.274004221,1.358639836,1.512754917,1.404594183,1.560569644,1.525097013,1.694479942,1.815438151,1.807753325
379.016449,0.375814319,0.457110554,0.607564688,0.796848476,0.87583977,1.012691736,1.021801472,1.032324672,1.281710505,1.289231181,1.37440443,1.53144002,1.419502974,1.575318575,1.539616585,1.712717175,1.832992554,1.828586459
378.0059204,0.383552432,0.465526104,0.617056608,0.808578134,0.886125386,1.024825335,1.034024358,1.045130372,1.294983745,1.303849936,1.387541294,1.54667604,1.434113264,1.589431286,1.555909753,1.729137301,1.846302629,1.842410445
376.9952087,0.390619755,0.47262156,0.626508534,0.818810225,0.898206592,1.038105249,1.046227217,1.056525469,1.309290886,1.316494823,1.401785016,1.563186169,1.4479357,1.605486512,1.570650697,1.748347878,1.868624806,1.862548828
375.9844055,0.399771512,0.482121378,0.637328565,0.831349134,0.912143588,1.053092599,1.060639381,1.070090413,1.326880455,1.334078908,1.420043588,1.58072412,1.467105865,1.624875546,1.590487361,1.765742064,1.89211607,1.881730795
375.0122986,0.409012616,0.4913809,0.648769915,0.844823062,0.925711751,1.067287564,1.075343609,1.084488988,1.344102263,1.350318551,1.437481999,1.602147698,1.485298038,1.645619273,1.608929753,1.787032604,1.908000112,1.907962799
374.0011292,0.417639464,0.500131786,0.659485459,0.85708338,0.938855767,1.081818819,1.088861942,1.097717404,1.359990478,1.367095232,1.454843044,1.619765162,1.501011729,1.663673282,1.628092527,1.805972695,1.930969,1.925973892
372.9898682,0.426769942,0.509613395,0.670443714,0.869688332,0.952232063,1.096417308,1.102931619,1.112403154,1.375200868,1.381723166,1.469909549,1.639982581,1.518733859,1.680417418,1.645009041,1.826470375,1.947970986,1.944591045
372.0173035,0.436662942,0.519753456,0.682637334,0.883625925,0.966339588,1.113323331,1.118303418,1.127284646,1.394387722,1.399811387,1.490088224,1.661242366,1.539278388,1.701804519,1.665333867,1.844581485,1.971680164,1.963374257
371.0057068,0.446386367,0.529833674,0.694178522,0.897292137,0.98086977,1.129275084,1.132741809,1.14124012,1.411965847,1.417183638,1.507611632,1.682311058,1.55598402,1.721960306,1.685097575,1.866574287,1.996369004,1.987617016
369.9939575,0.457194775,0.540485203,0.706792414,0.912640572,0.995745003,1.145364523,1.14904213,1.158016205,1.432163954,1.437494636,1.527958989,1.700073481,1.576276302,1.743141055,1.705202699,1.887346983,2.015023947,2.012014866
368.9820557,0.467703998,0.550377965,0.719677687,0.926692009,1.010947347,1.160363674,1.16482687,1.17255795,1.449669003,1.454926014,1.546780229,1.724376082,1.595637798,1.76108706,1.724612713,1.909674525,2.036813974,2.0342803
368.0089417,0.477247924,0.560440183,0.731356561,0.94042027,1.024820566,1.176879644,1.179360032,1.187587023,1.465156555,1.471463561,1.564005494,1.740473747,1.614069819,1.781908631,1.743659139,1.934175014,2.056626081,2.056274652
366.9967346,0.48851496,0.570966661,0.744405687,0.956184566,1.040128708,1.193959951,1.195319176,1.202911496,1.485064507,1.489180803,1.581922054,1.763320088,1.633683801,1.803280354,1.76502347,1.956148744,2.081257343,2.080792189
365.9844055,0.500608921,0.583175361,0.758820295,0.971755207,1.057878733,1.211394191,1.212837815,1.218983412,1.507692814,1.511017203,1.605407119,1.786893606,1.658174872,1.826867819,1.788411021,1.9794209,2.112336397,2.103031397
365.0108948,0.512625635,0.595185816,0.773161113,0.988599539,1.074853778,1.230600953,1.231290817,1.238084316,1.527415037,1.531322002,1.627720952,1.809658647,1.676445723,1.848315835,1.810761213,2.001634121,2.133684397,2.136122465
363.9982605,0.52437675,0.607084751,0.787466228,1.003647327,1.091426015,1.248283744,1.248068333,1.25458765,1.545754313,1.551228046,1.645564318,1.831391692,1.694339871,1.866239905,1.829510212,2.02267313,2.158848763,2.151563883
362.9854736,0.537384331,0.619082034,0.80143714,1.02056241,1.108665109,1.268681884,1.266445637,1.272965193,1.56703198,1.569784164,1.667293072,1.855170131,1.717906833,1.891678452,1.855216861,2.047578335,2.182913542,2.173468828
362.0115051,0.54883951,0.630583465,0.815533757,1.037340164,1.123969197,1.284444213,1.282894135,1.288971543,1.58732295,1.589897513,1.688381195,1.877132058,1.735758305,1.91277349,1.874397993,2.072318077,2.206477165,2.200206757
360.9984131,0.560955703,0.643448472,0.830177546,1.053379774,1.141829133,1.304604411,1.300467253,1.305614591,1.608375311,1.610527635,1.710705638,1.89882195,1.758810282,1.932851315,1.896647215,2.097213984,2.225851059,2.226173878
359.9852295,0.57773751,0.65900594,0.84781003,1.074977875,1.162911773,1.327187538,1.322565556,1.327568531,1.63218689,1.634229779,1.733894706,1.925145388,1.783734441,1.963672519,1.921299934,2.127876759,2.258739233,2.25886178
359.0108337,0.591694951,0.673787296,0.865260422,1.094256878,1.183238029,1.348472714,1.343357325,1.346744418,1.654402614,1.656945109,1.759661674,1.95056355,1.808851361,1.989216208,1.945259094,2.151137829,2.29338479,2.273991108
357.997345,0.607483566,0.6875422,0.882093251,1.112728477,1.202421069,1.369885683,1.362563372,1.366304398,1.678973436,1.680136919,1.78319025,1.97852087,1.833008766,2.013401508,1.971811771,2.17786622,2.314576387,2.306093216
356.9836731,0.621552587,0.701359212,0.89866209,1.131497025,1.22266376,1.390213013,1.382835507,1.385599971,1.701096535,1.702851892,1.805025339,1.997765422,1.852834821,2.035186052,1.997388721,2.200774908,2.339649439,2.325780153
356.0088806,0.638226807,0.717818677,0.916192532,1.152439833,1.242848277,1.413411856,1.406106114,1.408014417,1.727155685,1.729445457,1.832661748,2.031232595,1.88354063,2.072542429,2.025315046,2.233133316,2.365748405,2.364145756
354.9949646,0.655151844,0.733587027,0.934623241,1.173624039,1.265804529,1.436677098,1.428252339,1.430546165,1.754009604,1.756312251,1.862396836,2.056203365,1.908668756,2.099134684,2.053530693,2.261620522,2.398052692,2.398495674
353.9808655,0.66993475,0.747898698,0.950832903,1.192976356,1.286034107,1.457766294,1.447027206,1.448902011,1.778187752,1.778223395,1.8837955,2.081938267,1.932727933,2.123336792,2.075229645,2.284640312,2.425205946,2.422835827
353.0056763,0.682571828,0.761520028,0.966053188,1.21013701,1.303167224,1.475839496,1.466563106,1.46733892,1.7977736,1.803095341,1.907853961,2.114364147,1.952750683,2.143352747,2.102789879,2.322015285,2.466448307,2.452566862
351.991333,0.698495507,0.777820826,0.98418057,1.231561542,1.325284719,1.500229836,1.491882324,1.490272403,1.826107502,1.82870245,1.936272144,2.132587671,1.981415272,2.179772854,2.130824566,2.347009182,2.496013403,2.484184742
351.0158386,0.71293515,0.792896092,1.00062871,1.250731349,1.34570682,1.524241328,1.510483623,1.510897875,1.852613091,1.852242112,1.958563209,2.157137156,2.006740093,2.211288452,2.151145458,2.38050437,2.524912119,2.511104345
350.0011902,0.727692008,0.806769788,1.017251611,1.270662546,1.365952253,1.54860878,1.534722447,1.533569455,1.874333978,1.879134536,1.986710668,2.188963413,2.033204794,2.237261534,2.178582907,2.412255049,2.55815959,2.540378094