Wavelength (nm),30 s,60 s,90 s,120 s,150 s,180 s,210 s,240 s,270 s,300 s,330 s,360 s,390 s,420 s,450 s,480 s,570 s,600 s
650.0106201,0.006006692,0.007606497,0.002660356,0.00132918,0.003931075,-0.008734699,-0.003926134,0.000940912,0.003374864,-0.000662899,-0.003573878,0.002825982,-0.004621338,-0.00302082,0.002318988,-0.003688779,-0.004485266,0.002570927
648.9846191,0.00601076,0.007423028,0.002581056,0.001374466,0.003890145,-0.008509553,-0.004139566,0.001026296,0.003362629,-0.000643669,-0.003556471,0.002833277,-0.004639881,-0.003280276,0.00226218,-0.003716191,-0.004427925,0.002733888
647.994873,0.006229713,0.007699183,0.002661737,0.00129714,0.003838432,-0.008478178,-0.003944193,0.001185563,0.00341812,-0.000257644,-0.003154885,0.002941082,-0.00463773,-0.002864496,0.002393841,-0.003626096,-0.004243756,0.002826034
647.0049438,0.00617696,0.007679712,0.002765877,0.00147822,0.003702782,-0.008420244,-0.003919413,0.001194908,0.003321439,-0.000367994,-0.003158585,0.003026469,-0.00453886,-0.002823349,0.002521402,-0.003488889,-0.004156027,0.002895346
646.0147095,0.00610287,0.007614453,0.002661424,0.001437157,0.003847469,-0.008687812,-0.004090436,0.0010086,0.003287661,-0.000382116,-0.003282794,0.003034446,-0.004652021,-0.002851998,0.002590431,-0.003697557,-0.004253907,0.002979238
644.9874878,0.006125762,0.007275882,0.002555173,0.001303864,0.003823808,-0.008610315,-0.004076794,0.000951108,0.002958518,-0.000580803,-0.003243382,0.002985676,-0.004662469,-0.002798402,0.002409172,-0.003736055,-0.004404863,0.00299029
643.9967041,0.006071106,0.007648122,0.002682182,0.001450818,0.003658558,-0.008664925,-0.00397082,0.000969813,0.003109474,-0.000420909,-0.003276011,0.003034263,-0.004587734,-0.0028377,0.002430179,-0.003603505,-0.004103001,0.002839296
643.0056763,0.005825157,0.007398803,0.002409719,0.000953546,0.003616635,-0.008915452,-0.004088795,0.000990335,0.002876792,-0.000706319,-0.003497415,0.002890994,-0.004743593,-0.003045549,0.002404201,-0.003614543,-0.004199817,0.003069169
642.0142822,0.006196286,0.007667433,0.002746391,0.001217959,0.003721267,-0.008815421,-0.003916591,0.001170976,0.003078111,-0.000302346,-0.003114844,0.003332499,-0.004391794,-0.002792949,0.002634494,-0.003583583,-0.003961483,0.003106085
640.9859009,0.005969423,0.007514542,0.002724901,0.001162981,0.003698631,-0.008742716,-0.003962304,0.000995212,0.003006268,-0.000632348,-0.003273648,0.002906604,-0.004462976,-0.003048428,0.002482323,-0.003719527,-0.004092539,0.00313427
639.9938965,0.00596428,0.007783692,0.002759391,0.001239375,0.003835507,-0.008847989,-0.004041557,0.001026322,0.002923986,-0.000425771,-0.003111709,0.003367638,-0.004361401,-0.002729828,0.00253127,-0.003545533,-0.003939166,0.003249399
639.001709,0.005977481,0.007585792,0.00280975,0.001253082,0.003733068,-0.008661423,-0.004069357,0.001058394,0.002952028,-0.000317556,-0.003181251,0.003143891,-0.004144899,-0.00269834,0.002626447,-0.003555547,-0.003818943,0.003447159
638.0092163,0.005959661,0.007537141,0.002708334,0.001173078,0.00363355,-0.008596357,-0.004107412,0.00116267,0.00294361,-0.000386047,-0.003271335,0.003422425,-0.004419469,-0.002918856,0.002633947,-0.003617521,-0.003799595,0.003205404
637.0164795,0.00605714,0.007811813,0.002750299,0.001168899,0.003672211,-0.008698773,-0.004177871,0.001110347,0.003028893,-0.000286411,-0.003369569,0.003338029,-0.00435197,-0.002806889,0.002746548,-0.003613414,-0.003765927,0.003327439
635.9866333,0.006163648,0.007712937,0.002963261,0.001307967,0.003832243,-0.008654368,-0.004087256,0.001155974,0.003107571,-0.000168692,-0.003068889,0.003378907,-0.004190639,-0.002803031,0.002724875,-0.003402343,-0.003644321,0.003342151
634.9932251,0.006082787,0.00779824,0.003112786,0.00132731,0.003890014,-0.008528235,-0.003948554,0.001204512,0.003083325,-0.000256247,-0.002833225,0.003390282,-0.004100232,-0.002611328,0.002877235,-0.003363507,-0.003674302,0.003628121
633.9996338,0.006129307,0.007834585,0.002844508,0.001270398,0.003642217,-0.00872658,-0.004116694,0.001154572,0.003171791,-0.000377409,-0.003232385,0.003365629,-0.004108745,-0.002750097,0.002808552,-0.003478155,-0.003920183,0.003464537
633.0056763,0.006143615,0.007919437,0.002933055,0.00135473,0.003799339,-0.008539962,-0.00394604,0.001283146,0.003103713,-0.000364529,-0.002953721,0.003566078,-0.00399098,-0.002696848,0.00277338,-0.003478926,-0.00372004,0.003604629
632.0114746,0.006263275,0.007862419,0.003232499,0.001509235,0.003702547,-0.008469242,-0.003973487,0.001352575,0.003291886,-4.32E-05,-0.002975523,0.003616348,-0.003838392,-0.002639373,0.0030266,-0.003328778,-0.003689395,0.003623553
631.0170898,0.006129307,0.007821433,0.003146733,0.001325337,0.003746854,-0.008602143,-0.003870977,0.001358054,0.002893756,-5.31E-05,-0.002864342,0.003784089,-0.003840137,-0.002694276,0.002993391,-0.003275292,-0.003622091,0.003626816
629.9854736,0.006005459,0.007841385,0.003281401,0.001281069,0.00390344,-0.008584886,-0.004066587,0.001294673,0.002908688,-2.85E-05,-0.002825149,0.003717742,-0.003827718,-0.002625582,0.003188375,-0.00323665,-0.00360294,0.003505401
628.9904785,0.006093078,0.007714044,0.003093414,0.00129553,0.003694219,-0.008677206,-0.00407864,0.001142166,0.002705833,-0.000173298,-0.002784873,0.003649239,-0.003894888,-0.002728747,0.003166863,-0.003430492,-0.003653716,0.003389682
627.9951782,0.006040473,0.007758446,0.003055092,0.001420795,0.003990949,-0.008571993,-0.003960867,0.001376231,0.002873274,-4.58E-05,-0.002752052,0.003738655,-0.003802828,-0.002575149,0.003290686,-0.003142344,-0.00356823,0.003681348
626.9995117,0.006427653,0.008006362,0.003185507,0.001351926,0.003968064,-0.00849813,-0.003906381,0.001526691,0.00315419,0.000161377,-0.002708425,0.003838041,-0.003857276,-0.002483478,0.003333308,-0.003058607,-0.003483908,0.003637179
626.0037231,0.006577429,0.00820427,0.003140006,0.001481701,0.004007225,-0.00847437,-0.003885447,0.001392773,0.00339096,8.77E-05,-0.002599131,0.003806363,-0.003780811,-0.002419282,0.003309649,-0.003257461,-0.003280584,0.003715001
625.0075684,0.006419063,0.007926476,0.002969099,0.001221048,0.003835194,-0.008491683,-0.00410336,0.001403473,0.003073653,1.18E-05,-0.002674106,0.003932538,-0.003840291,-0.002584103,0.00301891,-0.003103947,-0.003454941,0.003475053
624.0111694,0.006747737,0.008218437,0.003390334,0.001611488,0.004032464,-0.008404554,-0.003847423,0.001563216,0.003359029,0.00035157,-0.002385353,0.004303176,-0.00363544,-0.002072294,0.003329317,-0.003038609,-0.003118854,0.003793698
623.0144043,0.006735906,0.008092752,0.003436201,0.001712155,0.004250317,-0.008254727,-0.003835364,0.001557137,0.003147593,0.000185461,-0.002371141,0.00399445,-0.003503372,-0.002254501,0.003618123,-0.00288728,-0.003057527,0.003704505
622.0175171,0.006496544,0.008151356,0.003338316,0.001612813,0.004112055,-0.008346052,-0.003857841,0.001428145,0.002988908,0.00029476,-0.002341225,0.00421461,-0.00360104,-0.002203509,0.003662056,-0.003029406,-0.002926107,0.003667773
620.9833374,0.006312808,0.007965652,0.003128064,0.001754596,0.00404686,-0.008475487,-0.004151719,0.001499987,0.002921458,0.000190718,-0.002469425,0.004141507,-0.003546304,-0.002323202,0.003644279,-0.003079941,-0.003019792,0.003433566
619.9858398,0.006624764,0.008241151,0.003309571,0.001735909,0.004311673,-0.008202505,-0.003744422,0.001697082,0.003333282,0.00041598,-0.002033081,0.004438622,-0.003177242,-0.00215859,0.003733225,-0.00269443,-0.002863879,0.003952574
618.9880981,0.006529127,0.008250094,0.003490579,0.001606708,0.004091908,-0.00832792,-0.004071614,0.001634353,0.003183264,0.000412715,-0.002165545,0.00421793,-0.003363045,-0.002208093,0.003530532,-0.002705955,-0.002777414,0.00377213
617.9900513,0.006580399,0.008433517,0.003412954,0.001789841,0.004178906,-0.008069024,-0.003854556,0.001732504,0.003393647,0.000465316,-0.001952635,0.004515489,-0.003207101,-0.001949542,0.003880742,-0.002511892,-0.002449399,0.004022222
616.9916992,0.006675863,0.008304999,0.003545538,0.00163599,0.004101707,-0.008281345,-0.003915462,0.00187612,0.003030223,0.000385302,-0.001940368,0.004605215,-0.003160333,-0.002018755,0.00385102,-0.002527283,-0.002378813,0.003943927
615.993103,0.006462045,0.008140595,0.003475418,0.001516378,0.004402403,-0.008349404,-0.00380873,0.001747033,0.003181439,0.00041515,-0.001828922,0.004590617,-0.003116746,-0.001837377,0.003813467,-0.002439566,-0.002374643,0.003798686
614.9942017,0.006548784,0.008289933,0.003481603,0.001752049,0.004298836,-0.008269205,-0.004076025,0.001811675,0.003199875,0.000580829,-0.001855523,0.004596085,-0.003054751,-0.001982578,0.003999205,-0.002487287,-0.002327579,0.003814537
613.9950562,0.006666531,0.008337402,0.00369602,0.001680061,0.004246343,-0.008303439,-0.003831977,0.001710622,0.003087496,0.000598041,-0.00160584,0.004838092,-0.002847986,-0.001911813,0.004046129,-0.002478845,-0.002324746,0.004003829
612.9956055,0.006474052,0.008076559,0.003474662,0.001602966,0.004204077,-0.008360932,-0.004103822,0.001835799,0.002913614,0.000574297,-0.001895473,0.004802207,-0.002892114,-0.001935833,0.004202038,-0.002501186,-0.002231066,0.003964538
611.9960327,0.006619297,0.008384612,0.003874996,0.001773726,0.0042694,-0.00816872,-0.003792667,0.001822229,0.003150175,0.000768483,-0.001696098,0.005064704,-0.002640402,-0.001664948,0.004545832,-0.002331956,-0.001995977,0.004204312
610.9960938,0.00656442,0.008073974,0.003710014,0.001707477,0.004289764,-0.008220235,-0.003977539,0.001749112,0.003107675,0.000882676,-0.001585259,0.004881337,-0.002589456,-0.001771744,0.004490641,-0.002328969,-0.002006078,0.004149034
609.9958496,0.006599138,0.008433359,0.003601314,0.001498117,0.004182435,-0.008397394,-0.004083153,0.00164893,0.003322091,0.000549622,-0.001484093,0.004915842,-0.002688359,-0.001813662,0.004036435,-0.002450068,-0.002005305,0.004020393
608.9953613,0.007090974,0.008815493,0.003772704,0.001693444,0.004354133,-0.008147025,-0.003867795,0.001810688,0.003461563,0.000648358,-0.001346931,0.005163843,-0.002554407,-0.001585362,0.004332118,-0.002160548,-0.001895113,0.004314418
607.9946289,0.006746449,0.008605425,0.003726541,0.001450507,0.004316327,-0.008221556,-0.003902174,0.001736897,0.003086558,0.00074263,-0.001393585,0.005207776,-0.002460313,-0.001488426,0.00447861,-0.00216199,-0.001726162,0.004390688
606.9935303,0.006561004,0.008312176,0.003792993,0.001351095,0.004536284,-0.008090266,-0.00404366,0.001776299,0.003026834,0.000748283,-0.001161554,0.005255826,-0.002311975,-0.001526915,0.00481566,-0.002096458,-0.0016029,0.004343492
605.9923096,0.006478098,0.008239278,0.003983843,0.001538874,0.004374999,-0.008082542,-0.003987389,0.001853502,0.003018415,0.000823644,-0.001136665,0.005453323,-0.002105732,-0.001553328,0.004853851,-0.001984124,-0.001454992,0.004383419
604.9907837,0.007013361,0.008814252,0.003906417,0.001534224,0.004673843,-0.007857007,-0.003876057,0.002011565,0.003394482,0.001003774,-0.000774025,0.005442287,-0.002087493,-0.001331189,0.004702287,-0.001814744,-0.001440234,0.00463491
603.9889526,0.007180918,0.009107894,0.004003149,0.001570127,0.00473594,-0.007828228,-0.003753968,0.002094584,0.003808609,0.001062364,-0.000706009,0.005678263,-0.001894391,-0.001162328,0.004887908,-0.001682534,-0.001285818,0.004789591
602.9868774,0.007368998,0.009261268,0.003973629,0.001689182,0.004811341,-0.00787653,-0.003741958,0.002194166,0.003781112,0.001189794,-0.000523047,0.005798292,-0.001801907,-0.00110625,0.004959252,-0.001839903,-0.00120162,0.004888117
601.9845581,0.007313868,0.009123703,0.004273164,0.001757039,0.004858196,-0.007696921,-0.003714343,0.002360733,0.003488857,0.00139189,-0.000248641,0.00601181,-0.001677841,-0.001000685,0.005337948,-0.00163488,-0.001083063,0.005022803
600.9819946,0.007113682,0.009022466,0.004213146,0.001644929,0.004870945,-0.007801431,-0.003824023,0.00225643,0.00367819,0.001343746,-0.000276064,0.00608956,-0.001517886,-0.001008175,0.005429443,-0.001533828,-0.001017162,0.004969673
600.0161743,0.007360783,0.009057116,0.004429181,0.002003607,0.005038227,-0.007791464,-0.00357244,0.002400713,0.003896622,0.001475493,7.91E-05,0.006211673,-0.001382077,-0.000795472,0.005781031,-0.001514172,-0.00082658,0.005450623
599.0130615,0.007089895,0.008877181,0.004576098,0.001979162,0.004985069,-0.007688529,-0.003618651,0.002484822,0.003623918,0.00158096,0.000329783,0.006448303,-0.00131044,-0.000726477,0.00606302,-0.001398952,-0.000551073,0.005313656
598.0097046,0.007097184,0.008589029,0.00454884,0.002052084,0.005091576,-0.007822432,-0.003540193,0.002526766,0.003619194,0.001605486,0.000223143,0.006416855,-0.001170693,-0.000769116,0.005970447,-0.001294954,-0.000467456,0.005298457
597.0060425,0.007404543,0.00930128,0.004692029,0.001870686,0.005202091,-0.007504669,-0.003590771,0.002636916,0.003942803,0.001671459,0.000545216,0.006509656,-0.001113325,-0.000462181,0.005704438,-0.00120828,-0.000244502,0.005516501
596.0021362,0.007609632,0.009311805,0.004518105,0.001993595,0.005332733,-0.007467624,-0.00358271,0.002579259,0.00400652,0.001785266,0.00060758,0.006569545,-0.001036531,-0.000416513,0.005842472,-0.001373252,-0.000311917,0.00550937
594.9979248,0.007297863,0.009240299,0.004673241,0.002045634,0.00520099,-0.00754156,-0.003466292,0.002798703,0.004011876,0.001748254,0.000607632,0.006707724,-0.000902792,-0.000423029,0.005697881,-0.001175081,-0.000260438,0.005531733
593.9934692,0.007559082,0.009577123,0.004665863,0.002083946,0.005273224,-0.00731951,-0.003235006,0.002762829,0.004297189,0.001998666,0.000891755,0.006837321,-0.000742913,-0.000213352,0.006128703,-0.000968039,6.46E-05,0.0059193
592.9887695,0.00760684,0.009351795,0.004727147,0.00210863,0.005378071,-0.007331626,-0.003227606,0.002788855,0.00414399,0.002054919,0.000742397,0.006948386,-0.000581062,-0.00015653,0.00592342,-0.000867142,4.72E-05,0.00577484
591.9838867,0.007615138,0.009387133,0.005000806,0.002213237,0.005517759,-0.007144305,-0.003218767,0.002898108,0.004307228,0.002266214,0.001152625,0.00725364,-0.000494554,3.02E-05,0.006343696,-0.000563534,0.000236714,0.006085911
591.0159302,0.007467822,0.009316433,0.004853065,0.002164534,0.005540778,-0.007263153,-0.003157968,0.002952445,0.004214271,0.002109931,0.001098669,0.00727991,-0.000318591,-2.66E-05,0.006318796,-0.000645685,0.000340456,0.006069951
590.010376,0.007581261,0.009490968,0.004854348,0.00220819,0.005676138,-0.007299809,-0.003258335,0.002973139,0.004455438,0.002266968,0.001193169,0.007325136,-0.000231204,0.00016363,0.006298546,-0.000584991,0.000446607,0.00616055
589.0046387,0.007674416,0.009667478,0.004892882,0.002258407,0.005523841,-0.007291052,-0.00310919,0.002996024,0.004580467,0.002465141,0.001436092,0.007554578,-4.77E-05,0.000180955,0.006390191,-0.00037984,0.000560793,0.006229608
587.9986572,0.007905018,0.009794176,0.005101686,0.002239048,0.005760019,-0.007112169,-0.003014188,0.003118626,0.004704328,0.002594311,0.001624792,0.007724347,0.000123701,0.00022884,0.006486296,-0.00034006,0.000714885,0.006482565
586.9924316,0.008015828,0.009609039,0.00515072,0.002407429,0.005764242,-0.007144152,-0.003207101,0.003218678,0.004468201,0.002772234,0.001578726,0.007682188,0.000172564,0.000363695,0.006756413,-0.000362821,0.000708455,0.006542739
585.9859009,0.007891125,0.009800053,0.005401791,0.002502031,0.005874535,-0.007044782,-0.00290312,0.003467668,0.00477695,0.002785182,0.001791036,0.007970715,0.00050025,0.000458294,0.006916323,-0.000212938,0.000850435,0.006731674
585.0164185,0.007967129,0.009618513,0.005133353,0.0024187,0.005760124,-0.006986809,-0.00306565,0.003205847,0.004831261,0.002863737,0.001924037,0.00784041,0.000566573,0.000635707,0.006777289,-0.00012998,0.000886256,0.006722314
584.0094604,0.008217618,0.009853937,0.005446324,0.002683459,0.00602391,-0.00690376,-0.00275447,0.003543242,0.004934876,0.003203969,0.002267072,0.008290856,0.000937877,0.000796931,0.007304865,0.000271603,0.001132641,0.007104157
583.0021973,0.008300329,0.009913971,0.005543977,0.002743005,0.006031207,-0.006695047,-0.002737236,0.003606664,0.005153234,0.003246061,0.002423854,0.008554786,0.00116742,0.000930094,0.007498345,0.000348202,0.001257625,0.007295099
581.9946899,0.008102694,0.009885979,0.00524118,0.002547153,0.005989579,-0.006782571,-0.002863725,0.003606403,0.005092833,0.003158075,0.002430283,0.008595287,0.001143048,0.000910276,0.00739359,0.00023213,0.001080763,0.007329612
580.9868774,0.008135768,0.009934311,0.005515321,0.002643141,0.006097803,-0.006546313,-0.002687484,0.003785577,0.005202798,0.003295407,0.00281246,0.008737254,0.001389164,0.001186134,0.007502664,0.000436916,0.001325986,0.007503375
580.0162354,0.008258853,0.010059364,0.005585798,0.003056916,0.006303851,-0.00658971,-0.002616216,0.003909499,0.005296335,0.003625145,0.002914917,0.008967469,0.001569997,0.00138223,0.0079134,0.000624352,0.001523625,0.007802641
579.0079346,0.008070071,0.009995919,0.005618182,0.002761501,0.006240821,-0.006616633,-0.002441471,0.003968822,0.005176574,0.003579519,0.003053658,0.009010441,0.001630352,0.001347797,0.008030674,0.000698421,0.001569373,0.007684665
577.9993896,0.008134739,0.010121573,0.005685606,0.002851465,0.006455686,-0.006432778,-0.002416914,0.004077536,0.00541888,0.003852352,0.003188819,0.009290675,0.001930303,0.001522171,0.008011372,0.000768302,0.001898115,0.008054406
576.9906006,0.008169978,0.010129389,0.005751415,0.002953253,0.00648422,-0.006309927,-0.002369803,0.004116916,0.005475735,0.003904301,0.003430174,0.009488216,0.002022825,0.001673356,0.008110791,0.000961173,0.002033566,0.00817135
575.9816284,0.008298112,0.0101919,0.005833053,0.003070029,0.006683039,-0.006229861,-0.00211516,0.004236541,0.005809966,0.004104425,0.003572499,0.009702629,0.002391134,0.001928769,0.008295711,0.001109413,0.002235119,0.008149879
575.0096436,0.008549611,0.010562299,0.005828987,0.003230256,0.006839504,-0.006159734,-0.002068274,0.004398193,0.005803224,0.004162258,0.003735366,0.009711074,0.002413546,0.002041707,0.008496206,0.001207134,0.002414483,0.008255186
574.0001831,0.008558825,0.01060235,0.006087381,0.003447968,0.006918691,-0.006076322,-0.001950212,0.004632529,0.006063283,0.004568904,0.003996514,0.010106841,0.002747694,0.002282555,0.008783769,0.001360002,0.002815143,0.008607406
572.9903564,0.00840554,0.010397434,0.006055618,0.003371838,0.006973217,-0.006157488,-0.002052353,0.004587634,0.006008319,0.00440758,0.003992726,0.010148839,0.002948849,0.002335722,0.008734877,0.001494844,0.002699868,0.00858058
572.0177612,0.008703554,0.010895877,0.006314673,0.003359237,0.007304628,-0.005841672,-0.001592997,0.004889453,0.006334135,0.004677977,0.004418276,0.010432327,0.00314363,0.00267877,0.009069856,0.001691521,0.003120529,0.008887908
571.0074463,0.008866851,0.010819464,0.006099824,0.003291338,0.007094316,-0.005921656,-0.001764474,0.004811655,0.006135922,0.004833276,0.00424582,0.010503712,0.003171087,0.002675749,0.009014986,0.001621751,0.003202405,0.009009516
569.9969482,0.008803977,0.010898611,0.006243973,0.003378725,0.007240137,-0.00575217,-0.001653963,0.005009762,0.006359378,0.004992977,0.004393617,0.010626914,0.003369516,0.002828405,0.009523168,0.001913844,0.003424616,0.009168962
568.986145,0.008682744,0.010722608,0.00602013,0.003219773,0.007209526,-0.005838096,-0.001682483,0.005041789,0.006430254,0.004954146,0.004526187,0.010839767,0.003425295,0.002830073,0.009539415,0.001848017,0.00354439,0.009209547
568.0125732,0.008792617,0.010714091,0.006314016,0.003542955,0.007581182,-0.005618496,-0.001410615,0.00529112,0.006608258,0.005314154,0.004723614,0.011257073,0.00369388,0.003140605,0.010148997,0.002232309,0.003884869,0.009436627
567.0013428,0.008760366,0.010716108,0.006250117,0.003630314,0.007550258,-0.005627031,-0.001435074,0.005361377,0.006684721,0.005376315,0.005014004,0.011304203,0.003966915,0.003276863,0.009905444,0.002198771,0.00405044,0.00964146
565.9898071,0.009174091,0.011323599,0.006369701,0.004030739,0.007887303,-0.005428952,-0.001161554,0.005616556,0.007229398,0.005609318,0.005244376,0.011529058,0.004218949,0.003612329,0.009951659,0.002516507,0.004554228,0.009903722
565.0155029,0.009226019,0.011387637,0.006501168,0.003668974,0.008014378,-0.005325506,-0.001012565,0.005750103,0.00718584,0.005909224,0.005478357,0.011871441,0.004492733,0.00371286,0.010260463,0.002508749,0.004694358,0.010100191
564.00354,0.009261849,0.011377353,0.00659396,0.003965034,0.007891626,-0.00522623,-0.000930741,0.005929376,0.007162944,0.005912451,0.005719729,0.011993914,0.004711576,0.003839555,0.010446513,0.002852429,0.004994155,0.010318459
562.991272,0.009265182,0.011420722,0.0066163,0.004022222,0.008175016,-0.00516162,-0.000780898,0.006166904,0.007234504,0.006209651,0.00583287,0.012265801,0.004869688,0.004064393,0.010643467,0.002978795,0.005197008,0.010409816
562.0162354,0.009338068,0.011385033,0.006674969,0.004087491,0.008134,-0.00502065,-0.000546264,0.006251352,0.007350857,0.006427469,0.006050526,0.012566716,0.005146319,0.004308771,0.010782019,0.003108614,0.00539875,0.01063031
561.00354,0.009317677,0.011589059,0.00664311,0.003955264,0.008235927,-0.004938453,-0.000600553,0.006243683,0.007372394,0.006551333,0.006286018,0.012740803,0.005184355,0.004415347,0.010716877,0.003171009,0.00545196,0.01064474
559.9905396,0.009304717,0.011414105,0.00663144,0.00381519,0.008089639,-0.005019166,-0.000537216,0.006238195,0.007486362,0.006544264,0.006288198,0.012897412,0.005211863,0.004372593,0.010625031,0.003253285,0.00554361,0.010698118
559.0148315,0.009594192,0.011530096,0.006812524,0.004245193,0.008424358,-0.004660984,-0.000350096,0.006807607,0.007764533,0.006907091,0.006701046,0.01317024,0.005552865,0.004651027,0.011259465,0.003448099,0.005921189,0.011102648
558.0012817,0.009552328,0.01153613,0.006976032,0.004320641,0.008510038,-0.004605151,-0.000132412,0.006856623,0.008071654,0.007061979,0.006858411,0.013323348,0.005829407,0.00493896,0.011345333,0.003648273,0.006168085,0.011309597
556.9876709,0.00958927,0.011875299,0.006985633,0.004413935,0.00876549,-0.004372933,2.03E-05,0.006981161,0.008169846,0.007388718,0.007150496,0.013613056,0.006255055,0.005161381,0.011710495,0.003984366,0.006387485,0.011575473
556.0112915,0.009808023,0.011935666,0.007227661,0.004738269,0.008905875,-0.004282975,0.000221744,0.007357861,0.008677092,0.007685113,0.007467927,0.014026193,0.00653257,0.005416442,0.012031969,0.004150915,0.006585024,0.011805098
554.9970703,0.009529121,0.011632582,0.006861567,0.004490719,0.008904528,-0.004154796,0.000276576,0.007274698,0.008778671,0.007768065,0.007452548,0.014022878,0.006534514,0.005388319,0.012168276,0.00403539,0.006461651,0.011752966
553.982605,0.009702206,0.011946309,0.007296889,0.004819063,0.00929332,-0.004025144,0.000608513,0.007629522,0.008963453,0.008163515,0.007988011,0.014597991,0.00701365,0.005813325,0.012497123,0.00452807,0.00698687,0.0122023
553.0055542,0.009875942,0.012300499,0.00719155,0.004956895,0.009428479,-0.003821098,0.000728654,0.007757392,0.009148262,0.008458908,0.008182982,0.014632071,0.007222344,0.005907833,0.01241004,0.004760618,0.007001207,0.012492354
551.9906616,0.01000368,0.012499148,0.007319266,0.005003294,0.00944877,-0.003711776,0.000873442,0.008057202,0.009443029,0.008691274,0.008526722,0.014868514,0.007403753,0.006196837,0.012728008,0.004802913,0.007179102,0.012717452
551.0130615,0.010281243,0.012509165,0.0075506,0.005073557,0.009725818,-0.003351948,0.001385424,0.008411162,0.009856955,0.009198018,0.008924767,0.015418301,0.007899481,0.00652621,0.013307733,0.005143673,0.007512752,0.01304941
549.9976807,0.010170912,0.012465021,0.007635634,0.00516421,0.00997012,-0.003330062,0.0015163,0.008595815,0.010032263,0.009468321,0.009200954,0.015648007,0.008077377,0.006645791,0.013373585,0.005376027,0.007765456,0.013179553
548.9820557,0.010169905,0.012341084,0.007708142,0.005372699,0.010107743,-0.003037478,0.001762653,0.008969611,0.010301653,0.009836593,0.009561272,0.016133441,0.008542192,0.006891548,0.013621818,0.005631923,0.008055119,0.013487163
548.0038452,0.010011707,0.012421761,0.007637373,0.005494086,0.010352762,-0.002881365,0.001956045,0.009216818,0.010503341,0.010235761,0.009810803,0.016371053,0.008740424,0.006987264,0.013939712,0.005759809,0.008263259,0.013658814
546.9876709,0.010570839,0.012954535,0.007773994,0.005520145,0.010459612,-0.002601138,0.002193074,0.00956188,0.011058195,0.01046123,0.010281588,0.016567754,0.009087884,0.007397697,0.013884277,0.005900223,0.008523845,0.013923407
546.0089722,0.010627099,0.013094948,0.00773212,0.005659668,0.010582483,-0.002459747,0.002523069,0.009832276,0.011456442,0.010853462,0.010480455,0.016885605,0.009311462,0.007578916,0.013893071,0.006119514,0.008812113,0.014139728
544.9924316,0.010492601,0.012985206,0.007869404,0.005874692,0.010750203,-0.0022271,0.002845471,0.010208516,0.011524168,0.011233643,0.010883163,0.017356744,0.009710385,0.007672677,0.014367474,0.006350342,0.009194476,0.014411036
544.0132446,0.010293728,0.012768207,0.007939209,0.005983412,0.010931632,-0.00192439,0.003285052,0.010755669,0.012033353,0.011889798,0.011435818,0.017721334,0.010045456,0.007988775,0.014813067,0.006661957,0.009592339,0.014647466
542.9962769,0.010603226,0.013144092,0.008284999,0.006318691,0.011401774,-0.00149405,0.003745444,0.011362738,0.012755171,0.012620918,0.01211304,0.018258089,0.010459639,0.008357615,0.0151172,0.00697619,0.009942866,0.015064134
542.0166016,0.01033402,0.012982139,0.008236982,0.006230448,0.011644122,-0.001340479,0.004012477,0.011766797,0.013308453,0.013006704,0.012753972,0.018420186,0.010691247,0.008434493,0.014879845,0.007034249,0.010163386,0.015155369
540.9991455,0.011486821,0.014322819,0.008396171,0.006577797,0.012008683,-0.000833298,0.00472979,0.012392887,0.01446025,0.013578976,0.013575531,0.018849466,0.011080925,0.008952091,0.014917082,0.007362126,0.010407059,0.015678681
539.9813843,0.011299049,0.014160614,0.008357536,0.006616747,0.012041443,-0.000604327,0.005123976,0.012939894,0.014860665,0.014288415,0.013900341,0.019279415,0.011331756,0.009112705,0.015286761,0.007380846,0.010528006,0.015722806
539.0010986,0.011129444,0.013941209,0.008572765,0.006931026,0.012455991,-0.000115695,0.005799972,0.013889248,0.015757188,0.015377078,0.014755833,0.01986056,0.011825287,0.0093309,0.016057955,0.00778812,0.01090745,0.016021855
537.9829102,0.010819305,0.013635254,0.008729992,0.007304839,0.0130381,0.000428469,0.006681067,0.014925092,0.016639508,0.016697153,0.01533468,0.020583248,0.0122997,0.009681268,0.016648196,0.008243103,0.011286987,0.016493483
537.0021973,0.010911006,0.013978018,0.008702049,0.007236504,0.01328654,0.000840865,0.007365917,0.015749566,0.017751481,0.017529527,0.016225627,0.020701252,0.012583904,0.009965326,0.016629072,0.008344922,0.011419181,0.016703043
535.9835205,0.011540436,0.01445198,0.008951456,0.007518941,0.013710293,0.00154898,0.0082526,0.016882511,0.018958697,0.018836895,0.017125243,0.021525403,0.013027163,0.010379645,0.017081194,0.008717261,0.01180805,0.017064204
535.0023193,0.011316107,0.014109216,0.009240616,0.00803099,0.014286998,0.002264028,0.009373749,0.018211791,0.020056272,0.020461503,0.018166173,0.022326704,0.013558946,0.010549276,0.018036066,0.00913306,0.012309047,0.017420035
533.9832153,0.010843138,0.013825962,0.009142974,0.00801625,0.014731517,0.002848286,0.01031989,0.019457648,0.021643691,0.021800306,0.018995529,0.022594042,0.013815541,0.010631026,0.018009217,0.009116723,0.012366545,0.017469751
533.0015259,0.011803448,0.015056604,0.009285915,0.008302783,0.015293894,0.003768369,0.011612642,0.02101019,0.023522375,0.023344187,0.020297723,0.023205582,0.014237216,0.011170345,0.017928118,0.009334021,0.012733126,0.017925447
531.9819946,0.011890968,0.014796435,0.00955979,0.008683958,0.016091613,0.00478946,0.013276558,0.023110729,0.025515256,0.025772644,0.021837868,0.024302348,0.014864068,0.01153076,0.018615467,0.009708082,0.013218326,0.018291216
530.999939,0.011560586,0.014488779,0.009781414,0.009261454,0.01701281,0.005904264,0.014941838,0.025108686,0.027899355,0.028079422,0.023434555,0.025224222,0.01542447,0.011776133,0.019114131,0.010135325,0.013578095,0.01858807
530.0176392,0.011221131,0.014139781,0.009990383,0.009627141,0.017791204,0.007108814,0.016667724,0.027221225,0.029848276,0.030531105,0.02512813,0.026178902,0.015961399,0.01195368,0.019583497,0.010365912,0.013874067,0.018799942
528.9973755,0.011292806,0.014757548,0.010012422,0.009873876,0.018776506,0.008470892,0.018585233,0.029477825,0.032594431,0.032684933,0.027058071,0.026692333,0.01627682,0.012272725,0.018997585,0.010375933,0.014008094,0.019091599
528.0146484,0.012377625,0.016018659,0.010186627,0.010404726,0.019827746,0.010037429,0.020747246,0.032057483,0.03567303,0.03534304,0.029207299,0.027937919,0.016910311,0.012930106,0.019270619,0.010650259,0.014528766,0.019637471
526.9938965,0.012117299,0.015683029,0.010615666,0.01111967,0.021463497,0.011966932,0.023733415,0.035537545,0.039113153,0.039191425,0.031970568,0.029460095,0.017818632,0.013326311,0.019898931,0.011148274,0.015010833,0.020001218
526.0108032,0.012009961,0.015806688,0.010781887,0.011683024,0.023002086,0.014001169,0.026554335,0.038843807,0.042508598,0.04265793,0.034544881,0.030790761,0.01847307,0.013793522,0.020145824,0.011591877,0.015391159,0.020360656
524.989563,0.012514281,0.016282436,0.011219192,0.012782176,0.024681835,0.016333448,0.029638372,0.042535063,0.046519648,0.046461623,0.037532158,0.032339666,0.01939157,0.014370739,0.020580316,0.011938727,0.015969697,0.020923013
524.0059814,0.012464142,0.016215658,0.011401774,0.013554699,0.02661653,0.018698208,0.033011567,0.046393842,0.050508648,0.050789379,0.040721759,0.034066267,0.020160982,0.0147019,0.021021493,0.012289927,0.016231457,0.021132059
522.984375,0.012337036,0.016379412,0.011841407,0.014544023,0.028781215,0.021444732,0.036879212,0.050717689,0.055095505,0.055221215,0.044313714,0.035938196,0.021090971,0.015109588,0.021524452,0.012620492,0.016736805,0.021541914
522.0003662,0.012548998,0.016489422,0.012292004,0.015594956,0.031221604,0.024481505,0.040867463,0.055227973,0.059776861,0.060060553,0.048064277,0.038060695,0.02223324,0.015743338,0.021883003,0.013046449,0.017228037,0.022052748
521.0161133,0.012504476,0.01654304,0.012759809,0.01686378,0.033744041,0.027655104,0.04498199,0.059743948,0.064617656,0.065090634,0.052017976,0.040157497,0.023230869,0.016320869,0.022239508,0.013462064,0.017698739,0.022488281
519.9938354,0.012451462,0.016522173,0.013317342,0.018380027,0.036824912,0.031086637,0.049835101,0.065053828,0.069809191,0.070348576,0.056601863,0.042687461,0.024551211,0.016933108,0.022818791,0.013783982,0.0181028,0.02291942
519.0091553,0.012553554,0.016738797,0.013749006,0.019792225,0.039853249,0.035052307,0.054398939,0.070108093,0.075641476,0.075689852,0.061014324,0.044877209,0.025706805,0.017456034,0.022827685,0.014116489,0.018556135,0.02326446
517.9863281,0.013109274,0.017461829,0.014525367,0.021241106,0.043113176,0.038828067,0.059301678,0.075309671,0.080850095,0.080720305,0.065612085,0.047524154,0.027072094,0.018210389,0.023120422,0.014509521,0.019127116,0.023838166
517.0012207,0.013243171,0.017755257,0.015227159,0.02315788,0.046866868,0.042949859,0.064405151,0.080676071,0.086601153,0.086600743,0.070456922,0.050454743,0.02851264,0.01899269,0.023755096,0.014942052,0.019653587,0.024370465
516.0159302,0.013315179,0.017979674,0.016117832,0.0253326,0.050956137,0.047591679,0.069832809,0.086581469,0.092299297,0.092432283,0.075685263,0.053730115,0.030375004,0.019883132,0.024534695,0.015452151,0.020339468,0.024935301
514.9924927,0.013217899,0.018114999,0.017189955,0.028056612,0.055827957,0.05291548,0.076151453,0.093234077,0.099413753,0.099222139,0.081747182,0.057551693,0.032520104,0.020825833,0.025335563,0.015968813,0.020937925,0.025454646
514.0068359,0.013284885,0.018299371,0.018366281,0.030737994,0.060685769,0.058130983,0.082164876,0.099197872,0.10556566,0.105622537,0.087524623,0.061404906,0.034613166,0.021816989,0.025967769,0.01645818,0.02146453,0.025964059
512.9829712,0.013452745,0.018605253,0.019480661,0.033687558,0.065719008,0.063334912,0.087992735,0.105179369,0.111699164,0.111709237,0.09334603,0.065097123,0.036848243,0.022921821,0.026469229,0.017027671,0.021971026,0.026475998
511.9967651,0.013547114,0.019002777,0.020730384,0.03635639,0.07057555,0.068399765,0.093556099,0.110564724,0.117410936,0.117095269,0.098599434,0.069002301,0.039164681,0.024049662,0.027101051,0.017395865,0.022449462,0.027095623
511.010437,0.013693542,0.019477194,0.022013098,0.039429069,0.075579487,0.073326141,0.098795421,0.115778953,0.122577429,0.122325197,0.104102768,0.072794519,0.041628849,0.025182607,0.027805237,0.017970311,0.022965131,0.027573617
509.9858704,0.013815381,0.01985094,0.023773717,0.043083303,0.081529535,0.078873746,0.104873389,0.121615574,0.128482416,0.128218591,0.110094503,0.077349946,0.044538662,0.026564572,0.02864963,0.018611036,0.023594987,0.028270641
508.9990845,0.014160909,0.020547638,0.025865855,0.047226451,0.087801941,0.084847637,0.11086759,0.127260834,0.134000987,0.133827686,0.115918137,0.082137421,0.04771639,0.028231192,0.029558923,0.019285016,0.024303937,0.028859414
508.012085,0.014182651,0.020983782,0.027815145,0.051072586,0.093362853,0.089942843,0.116039515,0.132023171,0.138787448,0.13861759,0.120860577,0.086578913,0.050516181,0.029652895,0.030336056,0.019807804,0.024751984,0.02940461
506.986908,0.014386311,0.021293139,0.030085688,0.055042669,0.099020988,0.09507627,0.12085411,0.136515856,0.143234581,0.143087834,0.12602368,0.090956457,0.053561788,0.031254649,0.031188032,0.020462807,0.025368575,0.029975008
505.9995117,0.014447591,0.02189392,0.032261614,0.058869228,0.104367048,0.099718183,0.12509732,0.140600994,0.147037849,0.147055641,0.130647287,0.095115289,0.056595169,0.032756444,0.032174602,0.021215472,0.025982087,0.03054438
505.0119019,0.014590977,0.022447227,0.034973376,0.063484237,0.110388227,0.104822807,0.129791066,0.144536436,0.150845006,0.150935546,0.135489956,0.099760748,0.060014185,0.034735322,0.033421386,0.021908049,0.026689002,0.031325091
503.9860229,0.015016942,0.023500623,0.038022436,0.068294778,0.116683349,0.10976845,0.134361267,0.148414463,0.154441372,0.15479818,0.140369937,0.104661897,0.063906528,0.036956377,0.034655105,0.022720531,0.027450092,0.032086968
502.9980164,0.01502667,0.024339719,0.041100677,0.072710596,0.122373365,0.114150927,0.13819848,0.15169026,0.15740104,0.157866061,0.144299462,0.109075308,0.067469411,0.039130859,0.035968397,0.023593457,0.028170587,0.032784469
502.0097046,0.015261183,0.025018351,0.044089969,0.077195428,0.127254933,0.117959552,0.14127408,0.154085398,0.159711003,0.160220131,0.147774711,0.113096885,0.070769675,0.041065738,0.037041731,0.024281325,0.028766666,0.033452559
500.9832153,0.015318027,0.025848353,0.047328744,0.081461988,0.132163569,0.121669591,0.144156426,0.156279877,0.161789224,0.162531883,0.151056051,0.117218129,0.074285656,0.043220822,0.038413823,0.025076212,0.02958281,0.034203116
499.9946289,0.015591227,0.026977522,0.051155549,0.086379297,0.137421191,0.125253975,0.146963731,0.15838398,0.163593978,0.16460833,0.154247686,0.12133155,0.07826446,0.045781117,0.040035646,0.02625427,0.030460794,0.034973066
499.0057068,0.015849913,0.028238485,0.054942191,0.091246456,0.142158017,0.1283447,0.149246231,0.16019699,0.165139899,0.166169822,0.157024249,0.125390038,0.081980161,0.048494603,0.041805349,0.027304217,0.031289589,0.035696551
498.0166016,0.015998542,0.029514147,0.058867421,0.095936269,0.146579489,0.131115839,0.151080787,0.161387369,0.165987805,0.167275414,0.159364775,0.129114762,0.085909225,0.051119614,0.043523174,0.028376522,0.03215668,0.036532819
496.9892883,0.016226029,0.030984068,0.062439665,0.099902712,0.150221765,0.133351356,0.152375311,0.162111476,0.166850269,0.167916581,0.161135942,0.132172898,0.089281723,0.05352056,0.044769149,0.029361263,0.032766156,0.037302431
495.9998169,0.016782274,0.032616392,0.065995947,0.103568345,0.153491914,0.135360047,0.153441161,0.162657678,0.167185932,0.168406472,0.162681848,0.135194793,0.092508249,0.056181666,0.046614971,0.030426947,0.033576127,0.038051229
495.0101624,0.016814724,0.034166399,0.070353657,0.10799513,0.156954497,0.137095153,0.154290751,0.163065925,0.16742146,0.168759629,0.164105743,0.138433516,0.096101046,0.059031677,0.048878949,0.031810217,0.034443848,0.038906652
493.9821777,0.016992649,0.035857081,0.074932598,0.112283923,0.160257712,0.138703331,0.154981479,0.163377509,0.167335987,0.168978721,0.165245578,0.141637802,0.10008058,0.062380459,0.051435556,0.033431228,0.0356084,0.039953589
492.9920654,0.017039975,0.037218492,0.079426415,0.116128556,0.162706286,0.139810458,0.155075252,0.163035974,0.166787893,0.168814883,0.165826842,0.144196689,0.103707515,0.065256447,0.053722207,0.034855891,0.036565062,0.040720738
492.00177,0.017097536,0.039348859,0.082585417,0.118734866,0.164433777,0.140324339,0.154845983,0.162482962,0.166504771,0.168163687,0.166177794,0.145584613,0.105964199,0.067676254,0.054916102,0.035833269,0.037162796,0.041350789
491.0112915,0.01826176,0.042117871,0.085815132,0.121407375,0.165984243,0.1407343,0.154776543,0.162159681,0.166188881,0.167720571,0.166597754,0.147431076,0.108289093,0.070360936,0.056751136,0.037121911,0.037970874,0.042283017
489.9825134,0.018246967,0.044149082,0.090630293,0.124723211,0.167618364,0.141049475,0.154312357,0.16135475,0.165233418,0.167173147,0.166708052,0.149633423,0.111833535,0.073887624,0.060034577,0.039193351,0.039229531,0.043417599
488.9916077,0.01817967,0.045987718,0.094773076,0.127390876,0.168808997,0.140921176,0.153657854,0.160531297,0.163899869,0.166397601,0.166535199,0.151251242,0.114713207,0.076761574,0.062768206,0.041003086,0.040326498,0.044405457
488.0004272,0.018540898,0.048598468,0.098076664,0.129316434,0.169445261,0.140598491,0.152718216,0.159413353,0.163161114,0.165315151,0.166576102,0.15204069,0.116907761,0.079495728,0.064560704,0.042521559,0.041114762,0.045271635
487.0091248,0.0194913,0.051900573,0.101329766,0.131478235,0.1699301,0.14035067,0.152098849,0.158643395,0.162599042,0.164514288,0.166997165,0.153161556,0.119135633,0.082450472,0.066887595,0.044292644,0.042200848,0.046422072
486.0177002,0.019639015,0.054207828,0.105047867,0.133154303,0.170037955,0.139757216,0.151039556,0.157668471,0.161379859,0.163721174,0.167587861,0.154254153,0.12156184,0.085273713,0.070251219,0.04639655,0.043339994,0.047466863
484.9877625,0.019482311,0.056671582,0.109179243,0.134779692,0.169994369,0.138815358,0.149773374,0.15636915,0.159810394,0.162533552,0.167672515,0.155002967,0.12429338,0.088419497,0.073648855,0.048884917,0.04476301,0.048671518
483.9958801,0.020556079,0.060307819,0.111250818,0.135647416,0.169828922,0.138249114,0.148953259,0.155490935,0.159575969,0.161619544,0.16701071,0.155094713,0.12557973,0.090789057,0.074909255,0.050369736,0.045656845,0.049645264
483.0037842,0.021728834,0.063585274,0.11347732,0.136665598,0.16930449,0.137478769,0.148097649,0.154655263,0.158790052,0.1608724,0.166288018,0.155540854,0.127150849,0.093257301,0.077400677,0.052327361,0.046751309,0.050803635
482.0114441,0.022055171,0.066302001,0.116416037,0.137130305,0.168848142,0.13665989,0.147149712,0.153755248,0.157774955,0.160165772,0.165344253,0.155983046,0.128985316,0.095926836,0.080592915,0.054679815,0.048211135,0.052052993
481.0189819,0.02259906,0.069272198,0.118992344,0.137694359,0.168194756,0.13572295,0.146214292,0.15304412,0.156897247,0.159559935,0.164080441,0.156272605,0.13078098,0.098589428,0.083935022,0.057387996,0.049879324,0.053476434
479.9881592,0.022760628,0.072009668,0.120950714,0.137500122,0.166946948,0.134254828,0.144652367,0.151633218,0.155393854,0.158365235,0.162211463,0.155925155,0.13180548,0.100717358,0.086766988,0.059693247,0.051050838,0.05455808
478.9952087,0.023143793,0.074672654,0.122630432,0.137447506,0.165990278,0.133328334,0.143737599,0.150766432,0.154768601,0.15770784,0.16092588,0.155856401,0.132935539,0.102706038,0.089429595,0.062001631,0.052391578,0.055681385
478.0021362,0.02390941,0.077632852,0.124033295,0.13723059,0.16517283,0.132614926,0.143098995,0.150166631,0.154247955,0.157126308,0.160035908,0.155838937,0.133977011,0.104842216,0.092094794,0.064390287,0.053845465,0.057010956
477.0088501,0.024652299,0.080328688,0.125319913,0.136994183,0.164071605,0.131679714,0.142322406,0.149610952,0.153658003,0.156702921,0.159476429,0.155624673,0.134748131,0.106628463,0.094459899,0.0667383,0.055348076,0.058301978
476.0153503,0.025619973,0.083439074,0.126449376,0.136678577,0.163124785,0.130982056,0.141697809,0.149156883,0.153317347,0.156237811,0.159119159,0.155632049,0.13558434,0.108567871,0.09736827,0.069417268,0.057062794,0.059761442
474.9835205,0.026394814,0.08632198,0.127440676,0.136045575,0.16213581,0.130236358,0.141139031,0.148615792,0.152926192,0.155999959,0.158559144,0.155387491,0.136366502,0.110433251,0.10025809,0.072308801,0.058715463,0.061293252
473.989624,0.027269239,0.088805996,0.12815249,0.135469616,0.161116466,0.129425511,0.140649274,0.148354054,0.152719468,0.155706912,0.158381477,0.155235171,0.136857346,0.111904569,0.102729119,0.074826732,0.060318764,0.0627857
472.9955444,0.028011825,0.091171697,0.128647834,0.134838507,0.160287216,0.128986955,0.140185654,0.148078546,0.15223375,0.155508533,0.158068761,0.154998392,0.137337476,0.113283232,0.104966506,0.077226073,0.061847888,0.064265773
472.0012817,0.028801462,0.093414553,0.128968358,0.13422066,0.159563854,0.12848495,0.139981121,0.148052156,0.152421385,0.155445173,0.157876447,0.154812187,0.137643397,0.11450401,0.107233062,0.079648949,0.063480072,0.06572289
471.0068665,0.029962529,0.095850818,0.129147932,0.133488089,0.158620834,0.128031328,0.139832392,0.147911668,0.152378142,0.155499563,0.157946155,0.154616058,0.138017044,0.11584381,0.109614328,0.082319789,0.065449052,0.067422338
470.012207,0.031342506,0.098486245,0.129475862,0.133060604,0.158236384,0.128004357,0.140150547,0.148328632,0.152926415,0.156008899,0.158208773,0.155048475,0.138654485,0.11736165,0.11235369,0.085273586,0.067722477,0.06945885
469.0173035,0.032126073,0.10017544,0.129265994,0.132308319,0.157618523,0.127638593,0.140049905,0.148303717,0.153015107,0.156117126,0.158069328,0.154912502,0.138780177,0.118253984,0.114234567,0.087789997,0.069432542,0.070919998
467.9840698,0.033117127,0.102141067,0.12924622,0.131906197,0.157390401,0.127614707,0.140249118,0.148618445,0.153477654,0.156550661,0.158373252,0.154900715,0.139195323,0.119338282,0.11638923,0.090364136,0.07149113,0.072676905
466.9887695,0.034185641,0.103718132,0.128952742,0.131161645,0.157052264,0.127649009,0.140359208,0.148985386,0.1535891,0.15678674,0.158514991,0.154887095,0.139301583,0.119993821,0.117780119,0.092513695,0.073163494,0.0742395
465.9933777,0.03562922,0.105466843,0.128923804,0.130763874,0.156923473,0.128019333,0.140936792,0.14963156,0.154269218,0.157546595,0.158901483,0.15518795,0.139763042,0.121053837,0.119843289,0.09519396,0.075395182,0.076239437
464.9978027,0.036955107,0.107128069,0.12848419,0.130235449,0.156902373,0.128229886,0.141497791,0.150138691,0.154860735,0.158112764,0.159409389,0.155378968,0.140027612,0.121821716,0.121585541,0.09789706,0.077668726,0.078345805
464.0020142,0.038219217,0.108344071,0.128091469,0.130048305,0.156918466,0.128502846,0.142032087,0.150820866,0.155373797,0.158784449,0.159965903,0.155702844,0.140351981,0.122498825,0.123286493,0.100254796,0.07985694,0.080260426
463.006012,0.039321058,0.109453365,0.127824649,0.129695222,0.157088652,0.128867611,0.142631859,0.151477739,0.15627335,0.159567222,0.16053167,0.156018347,0.140674382,0.123068966,0.124900773,0.102470815,0.082030311,0.082182176
462.0098267,0.040275656,0.110182934,0.127546012,0.129632801,0.157371357,0.129308522,0.143294275,0.152215377,0.156934917,0.16031073,0.161065266,0.15647985,0.14088878,0.123682462,0.126523122,0.104638375,0.084273107,0.08415617
461.0134888,0.041667081,0.111027174,0.127299875,0.129527316,0.1579317,0.130082622,0.144303978,0.153368786,0.15784055,0.161437064,0.161984637,0.157142103,0.141495541,0.124416016,0.128207907,0.107310906,0.086920701,0.086597174
460.0169373,0.043461856,0.11262764,0.126958668,0.129586831,0.158542886,0.13094084,0.145300657,0.154475063,0.159283415,0.162542835,0.162918538,0.157646284,0.141838312,0.125179991,0.12921688,0.109624021,0.089600101,0.088965453
458.9819031,0.045521401,0.113951691,0.126851261,0.130100131,0.15943256,0.13202171,0.146750465,0.155825123,0.160909072,0.163856,0.164241374,0.158653662,0.142626688,0.126158118,0.130925894,0.112216607,0.092662729,0.09152776
457.9849548,0.04648548,0.114286967,0.126801238,0.130297586,0.160222635,0.133007333,0.147780165,0.156997159,0.162012085,0.165188059,0.165195361,0.159402594,0.143196642,0.126755029,0.132306308,0.114408895,0.095296398,0.093948513
456.9878235,0.04762328,0.114773922,0.126846924,0.130664498,0.16123113,0.134054735,0.149003372,0.158341259,0.163091168,0.166489646,0.166375876,0.160507694,0.14388454,0.127426028,0.133807585,0.1165279,0.098148637,0.096364126
455.9905396,0.049116682,0.115256161,0.12697649,0.131180018,0.162392929,0.135108113,0.150372222,0.159715787,0.164741427,0.168003082,0.167769864,0.16142036,0.144667029,0.128172264,0.135015279,0.118710168,0.101185143,0.099110641
454.9930725,0.050533134,0.115709342,0.127129614,0.132022575,0.163603559,0.136484265,0.15194732,0.161401734,0.166124359,0.169643998,0.169230983,0.162705228,0.145583898,0.128968626,0.136488766,0.120950922,0.104246065,0.101974994
453.9953918,0.05187289,0.116003707,0.127423599,0.132856444,0.165033773,0.137909129,0.153584704,0.163019612,0.167688772,0.171357989,0.170858964,0.164116323,0.146694213,0.129859194,0.138025075,0.123312727,0.10790249,0.105066061
452.9975281,0.053170558,0.116576925,0.127725706,0.133554965,0.16633226,0.139342293,0.154987812,0.16457279,0.16944851,0.172853485,0.172278866,0.165210858,0.147587448,0.130672336,0.13918215,0.125269443,0.11094328,0.10782823
451.9994812,0.054465633,0.11701481,0.127965733,0.134215266,0.167505771,0.140522525,0.156397089,0.166001916,0.170932025,0.174446419,0.17362462,0.166282818,0.148413152,0.131436363,0.140205428,0.12701647,0.113785885,0.11041306
451.0012817,0.055800963,0.117307447,0.128651246,0.13559556,0.169281781,0.142071113,0.158189476,0.167915329,0.172790587,0.17637533,0.175350756,0.167938575,0.149640068,0.132443801,0.141314104,0.129237056,0.117444687,0.113688372
450.0028381,0.057057537,0.117798694,0.12951088,0.136737943,0.170999706,0.143703371,0.160005376,0.169760585,0.174937844,0.178199142,0.177219093,0.169551045,0.151170418,0.133551553,0.143153191,0.131410062,0.121060677,0.11731074
449.0042419,0.058308728,0.118203759,0.130272389,0.138009459,0.172850862,0.14543356,0.161853358,0.17156747,0.176811934,0.180286288,0.179198518,0.171331674,0.152573854,0.134687096,0.144581392,0.133564159,0.124810189,0.120603494
448.0054932,0.05931963,0.118552707,0.130898878,0.139220923,0.174292848,0.146947026,0.163492501,0.173273549,0.178699672,0.181957007,0.181010485,0.172734439,0.153793916,0.135633901,0.14553988,0.135317802,0.128329396,0.123736359
447.0064697,0.060402468,0.11906977,0.13159062,0.140420869,0.175900683,0.148403525,0.165133148,0.175012052,0.180457309,0.183752671,0.18267113,0.17428267,0.155036181,0.136762455,0.146682814,0.137137711,0.131748393,0.126925454
446.0073547,0.061796047,0.119886577,0.132674798,0.141970739,0.177845389,0.150306135,0.167141154,0.176969394,0.182579801,0.185764909,0.184702739,0.176144525,0.156784803,0.138159052,0.148303568,0.139157519,0.135712475,0.130671635
445.0080872,0.062931165,0.120422661,0.133820266,0.14332661,0.179790735,0.152188152,0.169068918,0.179026276,0.184754357,0.1879379,0.186771199,0.178169683,0.158439934,0.139482498,0.149898186,0.141237706,0.139705405,0.134272084
444.0085144,0.063866615,0.120791376,0.135021076,0.144875303,0.181749687,0.153973803,0.171160951,0.180997595,0.1869248,0.190021113,0.188905552,0.180141926,0.16019167,0.141016841,0.151504666,0.143369526,0.143952861,0.138372839
443.0088501,0.064886674,0.121361196,0.136274919,0.146459535,0.183857933,0.155783132,0.173222154,0.183143064,0.188795671,0.192195505,0.190932095,0.182326332,0.162099302,0.142557517,0.153255791,0.145424992,0.148043454,0.142326608
442.0090027,0.065822855,0.121981055,0.137650922,0.147954091,0.185728461,0.157498792,0.175130084,0.185171232,0.190943539,0.194307089,0.192907587,0.184337884,0.164022431,0.144065097,0.155029863,0.147551775,0.152167276,0.146243975
441.0089722,0.06687241,0.123022303,0.138863817,0.149667844,0.187744215,0.159354389,0.177052349,0.187105373,0.193108559,0.196362749,0.19507882,0.186305925,0.165747851,0.145728111,0.156306326,0.149579018,0.156452417,0.150454491
440.008728,0.067941695,0.124060229,0.140345588,0.151363313,0.189758495,0.161346152,0.179241344,0.189248979,0.195325807,0.198581353,0.197251767,0.188487351,0.167888507,0.147482157,0.158384308,0.151771456,0.160889208,0.154680297
439.0083313,0.068776727,0.124784313,0.14170818,0.152903989,0.191818893,0.163239628,0.18117851,0.191195458,0.1973214,0.200778663,0.199373514,0.190548509,0.169910654,0.149177387,0.160245508,0.153927535,0.165493056,0.158888683
438.0077515,0.069686785,0.125782952,0.14327541,0.15459758,0.193958551,0.165229604,0.18329744,0.193380445,0.19961758,0.20308727,0.20150815,0.192807049,0.172035798,0.151170492,0.162332535,0.156265333,0.170102209,0.163311377
437.007019,0.070624769,0.126727969,0.144979462,0.156555638,0.196056068,0.167181671,0.185438186,0.195593119,0.20158951,0.205500722,0.203894481,0.195219964,0.174351126,0.153169736,0.164174125,0.15861012,0.174889326,0.167946875
436.0060425,0.071290307,0.127744392,0.146489486,0.158187687,0.198328912,0.169233114,0.187543765,0.197648332,0.203959599,0.207739338,0.206225619,0.197489873,0.176663503,0.155091047,0.166344598,0.161024496,0.179515481,0.172629535
435.0049438,0.072226807,0.128936723,0.148154274,0.159959987,0.200599298,0.171238482,0.189660281,0.20000121,0.206400111,0.21008563,0.20849359,0.199803069,0.178975433,0.157192841,0.168674842,0.163567081,0.184722468,0.177605689
434.0036926,0.073200382,0.130308554,0.149919212,0.16192323,0.202966958,0.173433483,0.192021772,0.202276886,0.208869413,0.212583721,0.211138099,0.202298656,0.181566834,0.15959622,0.170937851,0.166173399,0.18984966,0.182469621
433.0021667,0.074041851,0.131568819,0.151444867,0.163566813,0.205000669,0.175431803,0.194236472,0.204545513,0.210999206,0.214929938,0.213439986,0.204805076,0.183876038,0.161798313,0.173255339,0.168861046,0.194981396,0.18763037
432.0005188,0.074882001,0.132883996,0.153216884,0.165694922,0.207448676,0.177571207,0.196666852,0.206966683,0.213670582,0.217584908,0.216100052,0.20747748,0.186667904,0.164286792,0.175761357,0.171594381,0.200539902,0.193067238
430.9987488,0.075906128,0.134363145,0.155276731,0.167560071,0.210009083,0.179872274,0.199098662,0.209600955,0.216217578,0.220311075,0.218797207,0.210239977,0.189470515,0.166968614,0.178850174,0.174640492,0.20629479,0.198935628
429.9967651,0.076708071,0.135882944,0.157130018,0.169581682,0.212356821,0.182033792,0.201628059,0.211948037,0.218717754,0.222905174,0.22134696,0.212787494,0.191931278,0.169330701,0.181332231,0.177734017,0.211817399,0.204505831
428.9945374,0.077630557,0.137223139,0.158907518,0.171514183,0.214783222,0.184376821,0.204043701,0.214336947,0.221158683,0.225442991,0.223950312,0.215535432,0.194754347,0.171965718,0.184228748,0.180562347,0.217560813,0.21008803
427.9921875,0.078568503,0.138830885,0.160860151,0.173779935,0.217357218,0.18670176,0.206587717,0.217028141,0.223788038,0.228161648,0.226578176,0.218438432,0.19756338,0.174787238,0.18725355,0.183812201,0.22336337,0.21588774
426.9896851,0.079393439,0.140423045,0.162791044,0.175741926,0.21985969,0.189085633,0.209142715,0.219598174,0.226170912,0.230970517,0.229332671,0.221116602,0.200520068,0.177564666,0.190377221,0.187202677,0.229494497,0.222102746
425.986969,0.080404319,0.142043546,0.16458258,0.177982405,0.222604871,0.191516563,0.211795941,0.222186804,0.228943989,0.233753637,0.232140616,0.224059925,0.203539699,0.180502296,0.193298549,0.190698385,0.235667437,0.2284493
424.9841003,0.081236623,0.143728733,0.166440055,0.179826737,0.225156456,0.193944752,0.214320034,0.224752247,0.231739983,0.236452162,0.235010296,0.226791546,0.206398785,0.183299691,0.196504161,0.19407557,0.241674632,0.234522104
423.9810486,0.08236707,0.14557299,0.168265536,0.181964994,0.227758795,0.196409956,0.216933549,0.227395251,0.234580204,0.239221528,0.237848371,0.229597732,0.209111333,0.186124608,0.19923301,0.197436601,0.2475124,0.240724638
423.0164795,0.083442494,0.147117972,0.17007862,0.184284702,0.230421349,0.198845103,0.21942246,0.230054081,0.237266362,0.241860315,0.240526334,0.232476011,0.212026641,0.188820139,0.202479467,0.201049194,0.253435701,0.246847153
422.0130615,0.084439211,0.148739472,0.17230612,0.186472565,0.23352015,0.2015035,0.222474724,0.233042345,0.240237549,0.245145574,0.243755683,0.235708639,0.215602025,0.192148671,0.206092581,0.205041096,0.260478467,0.254065782
421.009491,0.085634314,0.150837794,0.174287394,0.188801944,0.236370429,0.204285771,0.225282759,0.235917375,0.243337482,0.248129353,0.247072831,0.238811478,0.218682975,0.195307419,0.209219351,0.208874434,0.26729694,0.260956556
420.0057983,0.086941823,0.152879074,0.176416829,0.191261634,0.239308283,0.206893608,0.228128284,0.238758668,0.246308133,0.251212657,0.250185669,0.242017835,0.221794814,0.198463798,0.21286647,0.212738439,0.273571044,0.267535329
419.0019226,0.088091046,0.15450801,0.178429171,0.193673968,0.242306635,0.20964475,0.231074289,0.241744235,0.249462709,0.254428417,0.253229916,0.245205477,0.225037009,0.201691389,0.216625586,0.216843978,0.280551314,0.274456561
417.9978027,0.089202024,0.156300724,0.180612221,0.196330085,0.245442197,0.212353781,0.234033972,0.244734988,0.252394736,0.257504374,0.256522149,0.24848412,0.228383809,0.204946339,0.220222339,0.221021429,0.287332356,0.281556666
416.9935608,0.09054891,0.158240259,0.182985514,0.199022353,0.248776972,0.215495557,0.237271547,0.248078615,0.255902112,0.261216402,0.260233611,0.252080858,0.232243657,0.20850572,0.224289596,0.225712344,0.295158595,0.289259851
415.9891968,0.091845676,0.160032392,0.185297534,0.201664746,0.252169102,0.218497038,0.2404214,0.251271337,0.2589342,0.264449477,0.263636679,0.255809814,0.235691845,0.212170541,0.228287116,0.230208039,0.302567691,0.297146231
414.9846497,0.092969038,0.161896348,0.187667683,0.204429194,0.255516022,0.221516401,0.24372156,0.254485548,0.262420476,0.267862618,0.267152846,0.259312004,0.239343405,0.215715334,0.232519299,0.234590337,0.309941292,0.304925621
414.0185242,0.094215788,0.163806394,0.190073997,0.207082808,0.258644611,0.224359587,0.246787831,0.257603109,0.26562506,0.271106452,0.270361781,0.262675852,0.242706686,0.219080567,0.236136824,0.239096075,0.316923291,0.31210503
413.0135803,0.095541373,0.165780008,0.192494154,0.209752023,0.261937529,0.227392718,0.249986053,0.260759533,0.268811673,0.274586141,0.27379033,0.266320884,0.246451572,0.222661227,0.240236551,0.243434861,0.32405597,0.319374383
412.0085144,0.096900918,0.167795315,0.195233077,0.212896779,0.265799701,0.230832368,0.253625512,0.264375389,0.272446245,0.278467298,0.27758494,0.270421892,0.250602156,0.226691112,0.244868755,0.248624742,0.332413077,0.327949256
411.0032959,0.098201565,0.169964895,0.198072821,0.216071442,0.269742161,0.234208375,0.257315248,0.268033505,0.276091009,0.282436311,0.281645179,0.274590999,0.254851371,0.230605587,0.249403819,0.253818184,0.340770036,0.336403489
409.9978943,0.099843256,0.172372758,0.200738728,0.219187409,0.273226619,0.23754181,0.260606051,0.271417201,0.279900938,0.286076307,0.28524068,0.278292745,0.258484662,0.234488338,0.253471047,0.25841406,0.348088354,0.344263285
408.9922791,0.101196319,0.174497992,0.203344718,0.222218454,0.276703209,0.240630344,0.263975322,0.274786532,0.283160806,0.289549708,0.288751185,0.28230083,0.262372762,0.238277048,0.257770985,0.263346374,0.355892986,0.352160603
407.9865417,0.102454722,0.176538557,0.206303865,0.225575388,0.28048721,0.244054169,0.267609954,0.278401196,0.286731094,0.293392479,0.292729646,0.286369056,0.266702741,0.242207378,0.262176454,0.268224388,0.364179105,0.360208243
406.9806824,0.104010135,0.178885177,0.209545508,0.229167745,0.284776479,0.247827187,0.271494776,0.28235805,0.290960372,0.297634274,0.297122181,0.290952742,0.271221191,0.246687189,0.267423391,0.274044097,0.373430938,0.369478732
406.0133057,0.105558299,0.18142809,0.212918669,0.232904464,0.289170623,0.2518287,0.275774568,0.286547393,0.295235306,0.301903367,0.301668942,0.295765519,0.276112527,0.251464874,0.272624284,0.279976785,0.382340789,0.379158407
405.0070496,0.107346341,0.184064284,0.216141105,0.236679152,0.293604523,0.255416632,0.279672623,0.290414184,0.299146324,0.306232572,0.305735469,0.300338447,0.280699909,0.255778104,0.27779752,0.285632402,0.391339451,0.387854338
404.0006714,0.109157041,0.186948896,0.21923171,0.240015432,0.297483116,0.259089768,0.283448994,0.294153303,0.303192467,0.310021848,0.310043275,0.30465588,0.284993887,0.260130793,0.281932741,0.290877312,0.399349332,0.396604657
402.9940796,0.110838585,0.189543009,0.222548738,0.243525729,0.301571965,0.262767106,0.287231177,0.298071802,0.307027489,0.314218849,0.314253599,0.309472352,0.289635181,0.264741778,0.286886931,0.296494633,0.408191234,0.405175954
401.9873657,0.112536222,0.192545608,0.226440102,0.247631878,0.306249261,0.267174512,0.291767865,0.302602708,0.311480641,0.318902314,0.319100618,0.314352512,0.295000374,0.26979959,0.292510122,0.302878052,0.41779381,0.415041894
401.0192261,0.114452556,0.195710063,0.230517909,0.252221823,0.311438084,0.271515757,0.296474755,0.307246834,0.316219032,0.324090958,0.324075192,0.320073694,0.300768048,0.275033653,0.298455566,0.309276223,0.428155452,0.425394535
400.0121765,0.116286159,0.198617294,0.234264895,0.25609529,0.316092193,0.27564621,0.300613284,0.311588228,0.3204256,0.328551859,0.328675956,0.324922472,0.3056449,0.279693723,0.303989857,0.315016717,0.437283695,0.43464905
399.0049744,0.11809098,0.201597333,0.237974629,0.259999842,0.320767045,0.279479444,0.304959387,0.315762132,0.324928194,0.332837433,0.333128452,0.329964966,0.310701609,0.284472793,0.309034586,0.320897758,0.446236253,0.443939507
397.9975891,0.119875938,0.204756752,0.241750553,0.263968259,0.325198323,0.283713371,0.308991879,0.319845647,0.329232782,0.337215722,0.337555468,0.334632009,0.315448225,0.289406538,0.314179868,0.326566488,0.455093652,0.452608168
396.9900208,0.121954247,0.208171025,0.24591127,0.268603593,0.330331177,0.288172334,0.313732535,0.324643403,0.33365047,0.342286229,0.342969775,0.340356141,0.321388036,0.294724703,0.320204198,0.332942754,0.464832991,0.462437451
395.9823303,0.124178462,0.211783633,0.250680476,0.27357325,0.335952818,0.293099284,0.318989188,0.32965973,0.338900149,0.347987533,0.348554254,0.34625566,0.327487439,0.30070287,0.327133149,0.340212882,0.475797951,0.473462164
395.0132751,0.126078248,0.215255529,0.255059034,0.27820009,0.341442049,0.297737181,0.323974609,0.334593356,0.343783289,0.352751821,0.353796184,0.351805896,0.333267868,0.306027889,0.332346678,0.3464849,0.485477835,0.482979327
394.005249,0.128426045,0.219353557,0.258909822,0.282111794,0.345964283,0.301821023,0.327880293,0.33859995,0.348569572,0.357133806,0.358334333,0.356744289,0.338304639,0.311041683,0.33727169,0.352113307,0.493812382,0.49163267
392.9971008,0.130730957,0.222777352,0.263290346,0.286522746,0.351118386,0.306291342,0.333073944,0.343362927,0.353068233,0.362258434,0.363626838,0.362390757,0.34419474,0.316505551,0.343765438,0.358975381,0.503144205,0.500972569
391.988739,0.13252525,0.226354092,0.268013448,0.291490674,0.357048839,0.311098129,0.337985188,0.348352402,0.357922196,0.367707729,0.369220436,0.36842984,0.350007981,0.322300583,0.349865049,0.365570426,0.513928056,0.511288405
391.0190125,0.13554734,0.23125875,0.272492319,0.295997262,0.362189025,0.3155258,0.342606098,0.353067875,0.363316,0.372342229,0.374315083,0.373798221,0.35566923,0.327953905,0.355589777,0.372069091,0.523536146,0.521047533
390.010376,0.137958676,0.235367715,0.278083742,0.301545292,0.367891967,0.320813507,0.348088235,0.358720928,0.368807823,0.378285348,0.380054385,0.380344182,0.362273723,0.334161997,0.362568796,0.379333615,0.53375715,0.53162694
389.0015869,0.140099838,0.239121631,0.282835394,0.306501031,0.373691887,0.325778544,0.353148282,0.363787323,0.374164045,0.383817017,0.385702401,0.38631025,0.368778646,0.339850992,0.368960023,0.386240304,0.544233143,0.541456699
387.9926453,0.14257966,0.243344098,0.287655383,0.311508387,0.379357725,0.330874324,0.358108401,0.368750572,0.379014373,0.388987869,0.390962392,0.392196924,0.374824405,0.345938236,0.375310004,0.393082231,0.554174602,0.551263332
386.9835205,0.145521566,0.248532519,0.292766929,0.316785276,0.385123521,0.336070418,0.363716036,0.374311417,0.384958744,0.394694388,0.397055388,0.398776025,0.3813366,0.352342069,0.382331848,0.400318474,0.564518333,0.56184572
386.0130615,0.148594827,0.253617019,0.298586309,0.322920829,0.391866505,0.341951102,0.369719178,0.380225897,0.39121747,0.401102215,0.403440893,0.405831605,0.388726533,0.359275013,0.389790893,0.408221364,0.576001704,0.573003471
385.0036316,0.151376844,0.258299023,0.304205835,0.328641176,0.398208737,0.347038925,0.375596166,0.385799319,0.396791816,0.40711081,0.40993464,0.412613839,0.395717561,0.365896612,0.397045434,0.41619882,0.58658284,0.583647847
383.9940491,0.154035032,0.263090581,0.309787422,0.333778858,0.404316276,0.352507711,0.381090641,0.391336113,0.402347863,0.412958443,0.415980309,0.418788463,0.402301133,0.372487217,0.403721482,0.423608333,0.596936107,0.594439447
382.984314,0.157246187,0.268299758,0.314636886,0.338770419,0.410262942,0.357500792,0.386375278,0.396497458,0.407957137,0.418310642,0.421584994,0.42525053,0.408382893,0.378642052,0.410147101,0.430471748,0.606482029,0.603694499
382.0132141,0.160508782,0.273499191,0.321164012,0.344755799,0.417204768,0.363609463,0.392656416,0.402776152,0.414291799,0.425178856,0.428434879,0.432581157,0.41594255,0.386311084,0.418372333,0.438580692,0.618570745,0.615468383
381.0032043,0.163845018,0.279649437,0.327794433,0.351718128,0.424719244,0.370234847,0.399649173,0.409347147,0.421228707,0.432465673,0.436284959,0.440398067,0.424488366,0.393915385,0.426973373,0.448100358,0.631184697,0.627967835
379.992981,0.167614698,0.285647392,0.334056675,0.3582066,0.431877971,0.376682192,0.406039596,0.416067958,0.427812398,0.43958205,0.443552971,0.448258013,0.432474136,0.401603252,0.435593575,0.456981808,0.643737078,0.640241206
378.9826355,0.171547726,0.291418821,0.341107905,0.364955992,0.439760864,0.383339465,0.412915647,0.423172385,0.434983999,0.447001129,0.451122552,0.456326276,0.441343576,0.409527719,0.444138616,0.466426998,0.655907154,0.652751863
378.0109863,0.174869239,0.297250778,0.347791582,0.371628672,0.447015405,0.389717728,0.419856191,0.429590821,0.441675276,0.45400703,0.458168268,0.46400097,0.44894433,0.417614073,0.452959001,0.475380898,0.667559862,0.664542496
377.0003357,0.178853452,0.303922564,0.353677064,0.377548724,0.45436272,0.395452797,0.425997973,0.435879022,0.448601455,0.460371286,0.465372145,0.471515387,0.45627597,0.425215274,0.460277677,0.483638883,0.679775536,0.67626673
375.9895325,0.183924586,0.311465025,0.361740947,0.385643363,0.463657767,0.403734773,0.434111953,0.443983197,0.456768483,0.46913591,0.474355459,0.480882734,0.466385901,0.435044497,0.47034061,0.495111793,0.694906712,0.690244138
375.0174255,0.188217759,0.318605036,0.36984241,0.393482417,0.471773118,0.41104582,0.442120969,0.451814771,0.464477062,0.477366328,0.482880324,0.490013063,0.475455582,0.443895221,0.48042801,0.50513953,0.708601892,0.704653084
374.0063171,0.192319423,0.325762242,0.377465457,0.40083313,0.480492801,0.418092191,0.449295104,0.459389627,0.471896321,0.485257596,0.490875155,0.498860925,0.484615833,0.452685595,0.489947587,0.515388429,0.722360373,0.717646241
372.9950562,0.196896777,0.332561225,0.384910137,0.40809679,0.488704592,0.425727844,0.457040817,0.466962338,0.47968939,0.493587673,0.499277681,0.507535696,0.493910372,0.461814344,0.49927783,0.525882363,0.735540211,0.731090725
371.9836426,0.202212676,0.340795547,0.393732071,0.41693753,0.498657882,0.43429026,0.466023892,0.475652307,0.489000142,0.502737224,0.509232521,0.517915666,0.504648268,0.472057313,0.510711968,0.537980735,0.752336323,0.746406794
371.0109863,0.207267627,0.349194109,0.40173626,0.425126255,0.507483482,0.44241479,0.474085629,0.483548343,0.497137934,0.511337578,0.518369734,0.52749747,0.514553845,0.481808096,0.521131337,0.54896611,0.766779363,0.76130569
369.9992676,0.212712795,0.356626153,0.410655469,0.433603793,0.517131269,0.450702995,0.482675642,0.492230356,0.505678773,0.520258725,0.52754271,0.537206829,0.524454355,0.491686225,0.531733036,0.560706139,0.781902611,0.776622415
368.9873962,0.217604816,0.364533305,0.419039846,0.441766113,0.526133776,0.458472461,0.491206765,0.500645101,0.514294744,0.529444516,0.53677839,0.546909392,0.534264922,0.501107097,0.542443395,0.57135427,0.79696554,0.790736616
368.0143127,0.222501427,0.371769935,0.427097678,0.449249744,0.535252154,0.466313154,0.498637676,0.508150697,0.52204752,0.537552953,0.545592547,0.556083679,0.543571055,0.510082841,0.552248478,0.581656814,0.810366273,0.803388953
367.0021362,0.227777377,0.380355001,0.435765028,0.457960129,0.545327127,0.474594057,0.507637143,0.516864657,0.530715823,0.546567202,0.555382669,0.565717876,0.554370701,0.519956052,0.562649846,0.593285143,0.826181829,0.818179607
365.9898376,0.234152362,0.389644682,0.445451737,0.467740923,0.55609566,0.484441668,0.517412245,0.526697397,0.540712237,0.557519615,0.566205978,0.577502668,0.565807462,0.531510174,0.575126529,0.606488347,0.843102932,0.835554361
365.0163269,0.239896059,0.398528457,0.455163419,0.477286696,0.566577077,0.493649483,0.527075529,0.536052227,0.550897181,0.567350268,0.576448977,0.58813858,0.577184975,0.542423725,0.586812556,0.618958592,0.859251261,0.850991368
364.0037537,0.246281982,0.407369107,0.464646071,0.486222714,0.577495337,0.502299368,0.536807835,0.545218647,0.56006819,0.577166498,0.586873353,0.599597871,0.588133991,0.552881181,0.598017454,0.631083787,0.875062227,0.865823209
362.9909973,0.252117217,0.416158527,0.475268662,0.49608165,0.588079155,0.511667252,0.546932697,0.555331349,0.569907904,0.587745071,0.59781915,0.610889792,0.599674165,0.563695133,0.610131681,0.643735111,0.891821384,0.882181883
362.0170288,0.257757336,0.425400257,0.483999014,0.505393624,0.599038839,0.521070719,0.555909276,0.5640558,0.57936275,0.597146094,0.608171225,0.620755017,0.610629082,0.574323356,0.621340036,0.656179965,0.907035947,0.896577954
361.0039978,0.265934289,0.436184377,0.494340688,0.514990151,0.609833658,0.531155467,0.565640569,0.574264407,0.590011478,0.607648253,0.618957996,0.632656753,0.621587694,0.585872114,0.633313358,0.669499219,0.922313988,0.913602591
359.9907837,0.273539424,0.447567254,0.506602645,0.527302802,0.623551428,0.542696416,0.577652812,0.586086392,0.602250576,0.620113313,0.632374048,0.646334171,0.63589263,0.598753333,0.64729768,0.684121966,0.942181289,0.931562543
359.0164795,0.280560643,0.458041966,0.518234909,0.538458943,0.636684418,0.553775966,0.588935554,0.597358882,0.613780856,0.631691039,0.644780338,0.658995211,0.648585439,0.611202836,0.661426961,0.698061407,0.959779263,0.948008776
358.0029907,0.287874013,0.468907476,0.530389905,0.550514162,0.649579346,0.564878404,0.601198971,0.609085083,0.624894261,0.644342482,0.657301307,0.671260119,0.662067115,0.623849511,0.674053133,0.71213913,0.978462279,0.965227783
356.9893799,0.296069086,0.481137514,0.540723741,0.560943544,0.661340714,0.575421691,0.612198889,0.619685531,0.636274099,0.655500054,0.670346558,0.683551014,0.673912764,0.635706365,0.686762929,0.725924671,0.994918585,0.981421709
356.0145874,0.304341972,0.493538529,0.554382026,0.574276626,0.677155793,0.588344991,0.625238121,0.632758915,0.648889899,0.669744074,0.68403703,0.698090076,0.689411163,0.649559438,0.702068567,0.742366195,1.01521647,0.999698997
355.0007019,0.313156277,0.505394876,0.567302883,0.587406397,0.69226712,0.600839555,0.638460517,0.645722568,0.661879838,0.683206379,0.698347747,0.712701678,0.703728974,0.663755357,0.716036439,0.757756472,1.035404801,1.018485785
353.9866333,0.32102406,0.516655386,0.579647422,0.598917723,0.705527306,0.612382412,0.65087074,0.657830417,0.674784005,0.695587754,0.71191448,0.726653695,0.717953503,0.676505446,0.730075181,0.772265136,1.053112388,1.036110401
353.0114746,0.328099847,0.527702272,0.590477824,0.60953629,0.717245221,0.623246372,0.661410153,0.66857928,0.686168313,0.706841469,0.723719478,0.738926113,0.730155408,0.688212216,0.742821813,0.785350144,1.069646358,1.052473545
351.9971313,0.336586684,0.54012233,0.604519248,0.623379171,0.732840598,0.636314035,0.675548434,0.681825817,0.699863136,0.72184515,0.738955557,0.75486064,0.746609211,0.703326106,0.758757055,0.802803457,1.091645122,1.072657943
350.9826355,0.345805019,0.553333759,0.617759645,0.636818647,0.748641908,0.649567127,0.689390957,0.69646132,0.713911474,0.736485541,0.755219042,0.77061677,0.762659371,0.718040347,0.775266528,0.819770575,1.111964822,1.092448354
350.0070801,0.354067117,0.56518209,0.630337596,0.64937973,0.76310128,0.662025571,0.702120662,0.709269047,0.72743541,0.750406444,0.769441009,0.784727633,0.777733445,0.732154787,0.789570153,0.834694743,1.13155067,1.111958385
