Wavelength (nm),30 s,60 s,90 s,120 s,150 s,180 s,210 s,240 s,270 s,300 s,330 s,360 s,390 s,420 s,450 s,480 s,570 s,600 s
650.0166626,-0.005649568,-0.002743924,-0.00701488,-0.005913332,-0.006543254,-0.00608495,-0.005698828,-0.007666454,-0.006284312,0.000809717,-0.006357072,-0.004955446,0.003299555,0.001550071,-0.003857327,-0.004637576,-0.007043254,-0.007699719
648.9905396,-0.00583779,-0.002752464,-0.006754231,-0.006026084,-0.006488224,-0.005976503,-0.005631426,-0.007732269,-0.006110628,0.001035845,-0.006161521,-0.005006116,0.003063642,0.001548746,-0.003958712,-0.004641008,-0.006885773,-0.007696158
648.0008545,-0.005704449,-0.002615753,-0.006844189,-0.005868642,-0.006178875,-0.0060462,-0.005632652,-0.007409555,-0.006166574,0.000932403,-0.006120021,-0.00475025,0.003109865,0.001648359,-0.003473585,-0.004567345,-0.006715949,-0.007527109
647.0108643,-0.005631579,-0.002580089,-0.007066176,-0.006003668,-0.006289108,-0.006056105,-0.005627031,-0.00758038,-0.006145442,0.000863612,-0.006260175,-0.004897348,0.003365524,0.001881059,-0.00352073,-0.004630866,-0.006858051,-0.00746284
645.9838867,-0.005709099,-0.002663661,-0.006997508,-0.005970988,-0.006503627,-0.005869663,-0.005838811,-0.007687918,-0.00613559,0.000880731,-0.006281199,-0.005001561,0.003180318,0.001627598,-0.003844396,-0.004627588,-0.007002654,-0.007296551
644.9933472,-0.005837228,-0.002780449,-0.006816923,-0.006064223,-0.006406558,-0.006039001,-0.005781393,-0.007643869,-0.006054062,0.000815422,-0.006274616,-0.004899856,0.003388482,0.001585611,-0.003669682,-0.004663852,-0.006878435,-0.007449151
644.0025024,-0.005742412,-0.002688101,-0.006780481,-0.006175761,-0.006308192,-0.006029453,-0.005707157,-0.007582211,-0.006036703,0.000706718,-0.006157641,-0.00490907,0.003356055,0.001820643,-0.003902276,-0.004631942,-0.006751071,-0.00734084
643.0113525,-0.006033028,-0.00300699,-0.007043406,-0.006375133,-0.006512909,-0.006271197,-0.005837381,-0.007893054,-0.006440736,0.000708585,-0.006415026,-0.005080319,0.003161856,0.001323987,-0.003995905,-0.004746921,-0.007154389,-0.007680238
641.9832153,-0.005822159,-0.002516782,-0.006799085,-0.005921861,-0.006417781,-0.005932687,-0.005693105,-0.007623877,-0.006066163,0.000945089,-0.006146105,-0.004737038,0.003429808,0.001640641,-0.003682106,-0.004750813,-0.006713247,-0.007226698
640.9914551,-0.006023633,-0.002744284,-0.007117618,-0.006282985,-0.006519182,-0.006227973,-0.005726164,-0.007871396,-0.006184285,0.000680428,-0.006336255,-0.005078988,0.003066432,0.001575842,-0.003974923,-0.004886495,-0.006954764,-0.007554381
639.9995117,-0.005829055,-0.002531503,-0.006900193,-0.006039359,-0.006434564,-0.005931257,-0.00563577,-0.007735982,-0.006166574,0.000761222,-0.006324775,-0.004829207,0.003380707,0.00175982,-0.003633643,-0.004750557,-0.006682455,-0.007190035
639.0072021,-0.005919869,-0.002821189,-0.006772989,-0.005963737,-0.006375846,-0.006069277,-0.005739704,-0.007845415,-0.006157743,0.000820272,-0.006282679,-0.004866632,0.003267369,0.001654309,-0.00375905,-0.004430487,-0.00653897,-0.006986809
638.0147095,-0.0058999,-0.002709094,-0.006901518,-0.006233536,-0.00657839,-0.006090719,-0.005797383,-0.007847855,-0.006152894,0.00059957,-0.006220828,-0.004984825,0.003204986,0.00159169,-0.003611566,-0.00466544,-0.006683934,-0.007112067
636.9851074,-0.005859345,-0.002717891,-0.007004997,-0.006066418,-0.006491386,-0.0059884,-0.005827727,-0.007855837,-0.006208835,0.000763167,-0.006394161,-0.005011182,0.003149757,0.001641005,-0.0038095,-0.004754039,-0.006810654,-0.007137124
635.9919434,-0.005846473,-0.002883937,-0.006860854,-0.006174996,-0.00637952,-0.006029351,-0.005769081,-0.007702262,-0.006058147,0.000689813,-0.00619781,-0.004880966,0.003239802,0.001858077,-0.003579321,-0.004558584,-0.006732159,-0.007017478
634.9985962,-0.005810052,-0.002651003,-0.006859784,-0.006044975,-0.006564927,-0.005829361,-0.005670008,-0.007654652,-0.00603221,0.000816149,-0.006200209,-0.004734733,0.003349168,0.001853476,-0.003492228,-0.004297585,-0.006657678,-0.006694742
634.0048218,-0.006007191,-0.002776488,-0.006937593,-0.006006476,-0.006472565,-0.006113997,-0.005986664,-0.007772751,-0.00621797,0.000677913,-0.00631258,-0.005037385,0.003203526,0.001519417,-0.003626455,-0.004604741,-0.006711361,-0.00692725
633.0109253,-0.005785224,-0.002885686,-0.00695568,-0.006128699,-0.006406966,-0.005984366,-0.005786246,-0.007729981,-0.00604957,0.000844081,-0.006219348,-0.004853372,0.003405544,0.001463649,-0.003719322,-0.004478759,-0.006584713,-0.00676101
632.0166626,-0.00576719,-0.00276054,-0.0068157,-0.006148556,-0.006433646,-0.005771686,-0.005657847,-0.007542577,-0.005913536,0.000920003,-0.006199035,-0.004587632,0.003426651,0.001676163,-0.00355493,-0.004419161,-0.00658099,-0.006635346
630.9852905,-0.005759527,-0.002802414,-0.00707351,-0.006079028,-0.006535859,-0.005926355,-0.005809439,-0.007788667,-0.005987175,0.000748698,-0.00615218,-0.004718038,0.003379768,0.001716677,-0.003467422,-0.004294252,-0.006619692,-0.006573341
629.9905396,-0.005851377,-0.002902965,-0.007093171,-0.006196841,-0.006478685,-0.005933607,-0.005799477,-0.00782355,-0.00610976,0.000858995,-0.006141716,-0.004888952,0.003540214,0.001716807,-0.003442254,-0.00453927,-0.006507962,-0.006463486
628.9954224,-0.006077088,-0.003023031,-0.00723795,-0.006467464,-0.006565896,-0.006005353,-0.005878601,-0.007811754,-0.006204241,0.000730469,-0.006490264,-0.004918796,0.003231247,0.001693964,-0.003826024,-0.004774215,-0.006523058,-0.006431707
628.000061,-0.0058572,-0.002619355,-0.00717761,-0.006270075,-0.00652061,-0.005852603,-0.005862819,-0.007796448,-0.00607377,0.000873468,-0.006332582,-0.004943162,0.003257719,0.001769385,-0.003557036,-0.004603512,-0.00660975,-0.006222665
627.0043945,-0.005800295,-0.002657177,-0.007051251,-0.006211999,-0.006411149,-0.005597849,-0.005817459,-0.007653279,-0.005975022,0.000817367,-0.006128239,-0.00466503,0.00352025,0.001750048,-0.003489198,-0.004316551,-0.00647027,-0.006049672
626.0084839,-0.005771074,-0.002646474,-0.00711334,-0.006274208,-0.006500872,-0.005748339,-0.005819911,-0.007804686,-0.006108688,0.00061235,-0.006113742,-0.004896887,0.003461928,0.001624194,-0.003560117,-0.004557611,-0.00658507,-0.00623721
625.0123291,-0.006124156,-0.002848963,-0.007251596,-0.006465118,-0.006497047,-0.005828391,-0.00595,-0.007870633,-0.006154273,0.000676046,-0.006471647,-0.004898269,0.003342438,0.00154807,-0.003721785,-0.004629073,-0.006511022,-0.00622435
624.0158081,-0.00585107,-0.002422989,-0.007103358,-0.006161878,-0.006407017,-0.005410239,-0.005702916,-0.007566592,-0.005804433,0.000893415,-0.006138245,-0.004556791,0.003732598,0.001881969,-0.003431057,-0.004263802,-0.006365694,-0.005776642
622.9821777,-0.005952757,-0.002678737,-0.007068264,-0.006225881,-0.00638554,-0.005575462,-0.005753243,-0.007666606,-0.005929827,0.000735655,-0.006133038,-0.004748048,0.003497286,0.001686999,-0.003405425,-0.004377341,-0.006294313,-0.005756258
621.9852295,-0.005941369,-0.002623215,-0.007195128,-0.006167442,-0.006528311,-0.005577251,-0.005795595,-0.007674389,-0.005874055,0.000711722,-0.006168666,-0.004768428,0.003465111,0.001812793,-0.003537728,-0.004455956,-0.006491692,-0.005924363
620.987854,-0.006259001,-0.002910782,-0.007313351,-0.006452621,-0.006698565,-0.005715894,-0.005891217,-0.007831228,-0.006043749,0.00065375,-0.006429565,-0.004907637,0.003632741,0.001747189,-0.003527252,-0.004370884,-0.006642688,-0.005898674
619.9903564,-0.005918388,-0.002662889,-0.006994146,-0.006011787,-0.006298753,-0.005459679,-0.005847597,-0.007685833,-0.005866803,0.000980476,-0.006128189,-0.004482243,0.003709257,0.001811545,-0.003106414,-0.004348895,-0.006341766,-0.005641136
618.9924927,-0.006011634,-0.002662477,-0.007174351,-0.006220318,-0.006568854,-0.0055153,-0.005775211,-0.00763461,-0.005861082,0.001048974,-0.006178569,-0.004565552,0.003613321,0.001775415,-0.003284438,-0.004376368,-0.006262675,-0.005627746
617.9944458,-0.005851377,-0.002632529,-0.007109979,-0.006347888,-0.00648751,-0.005564422,-0.005680586,-0.007323685,-0.005740521,0.001004864,-0.005997847,-0.004646386,0.003713513,0.001918889,-0.003363404,-0.004331621,-0.006310284,-0.005543619
616.9960327,-0.005900308,-0.002725403,-0.007129434,-0.006300997,-0.006550138,-0.005591716,-0.005708077,-0.007817092,-0.00588519,0.000771206,-0.006243232,-0.004615038,0.003782157,0.001736715,-0.003300469,-0.004411269,-0.006198678,-0.005642669
615.9974365,-0.005957915,-0.002731011,-0.00726799,-0.006312376,-0.006466138,-0.005630761,-0.005884833,-0.007688275,-0.005870583,0.00090763,-0.006231647,-0.004631532,0.003641355,0.001762575,-0.00329492,-0.00435279,-0.006336663,-0.0056859
614.9984741,-0.005995039,-0.002854673,-0.007237237,-0.006281761,-0.00637151,-0.005694842,-0.005757279,-0.007737915,-0.00583922,0.000744704,-0.006182958,-0.004599772,0.003737689,0.00185813,-0.003222621,-0.004570214,-0.006141154,-0.005421078
613.9992676,-0.00605876,-0.002728078,-0.007093935,-0.006429718,-0.0064794,-0.00558272,-0.005898623,-0.007688325,-0.00579958,0.00091344,-0.006127321,-0.004591525,0.003861702,0.001839048,-0.003230432,-0.004293073,-0.00608934,-0.005460037
612.9998169,-0.006191941,-0.002622701,-0.007364408,-0.006414873,-0.006542285,-0.005844379,-0.005792121,-0.00777687,-0.005849947,0.000797294,-0.006034712,-0.004728588,0.003834724,0.001787449,-0.003352256,-0.004382262,-0.006249356,-0.005641392
612.000061,-0.005986613,-0.002677965,-0.007288354,-0.006420944,-0.006490774,-0.005612517,-0.005761928,-0.00768034,-0.005773985,0.000931262,-0.005945199,-0.00442403,0.003663831,0.001849343,-0.00327745,-0.004316141,-0.006172648,-0.005418982
611.0001221,-0.006061772,-0.002590125,-0.007334121,-0.006566253,-0.006519335,-0.00567287,-0.005838403,-0.007679424,-0.005880798,0.000952145,-0.006136151,-0.004341002,0.0037303,0.002135918,-0.0030949,-0.004290664,-0.006069787,-0.005449812
609.9998169,-0.006118643,-0.002815994,-0.007364306,-0.006586498,-0.006582112,-0.005707055,-0.005844124,-0.007704551,-0.00590613,0.000803259,-0.006126249,-0.004565706,0.003476827,0.00171031,-0.003354003,-0.004319217,-0.006159785,-0.005490353
608.9993286,-0.005887948,-0.002915462,-0.007246759,-0.006492406,-0.00638656,-0.00561962,-0.005738069,-0.007638527,-0.005902249,0.000739726,-0.006152333,-0.004421314,0.00366558,0.001699577,-0.003133709,-0.004151206,-0.006067745,-0.005382576
607.9984741,-0.006115478,-0.002867685,-0.007356976,-0.006513827,-0.006427881,-0.005617679,-0.005870429,-0.007774632,-0.005833754,0.000801366,-0.006166063,-0.004557201,0.003701973,0.001771594,-0.003150207,-0.004258573,-0.006097049,-0.005455181
606.9974365,-0.006265023,-0.002806066,-0.007495306,-0.006516479,-0.006417118,-0.005703427,-0.005885037,-0.00795121,-0.005898061,0.000871263,-0.00622685,-0.004445861,0.00370957,0.001800524,-0.00315545,-0.004213865,-0.00612385,-0.005464332
605.9961548,-0.006101848,-0.002629236,-0.007437547,-0.006553912,-0.006444103,-0.005766526,-0.005934577,-0.007681001,-0.005754418,0.00087837,-0.006043239,-0.00427508,0.003781582,0.001874768,-0.003189422,-0.004091103,-0.005908275,-0.005317323
604.9945068,-0.006094292,-0.002697929,-0.007380289,-0.006465169,-0.006336765,-0.00559422,-0.005698675,-0.00744742,-0.005738682,0.000736251,-0.005958987,-0.004410654,0.003820674,0.001925233,-0.002841763,-0.003975949,-0.005834061,-0.005309703
603.9926758,-0.006099499,-0.00271429,-0.007189272,-0.006426708,-0.006330592,-0.005489126,-0.005567336,-0.007438463,-0.005607355,0.000987014,-0.005925282,-0.004279437,0.003915585,0.001908437,-0.002933306,-0.003928392,-0.005691266,-0.005054323
602.9905396,-0.006082601,-0.002592132,-0.00720689,-0.006416302,-0.006319571,-0.005477675,-0.005647268,-0.007503041,-0.00563623,0.000749968,-0.005882534,-0.004428489,0.00393805,0.001794494,-0.002912839,-0.003919105,-0.005814548,-0.005084105
601.9881592,-0.005944944,-0.002497274,-0.007247675,-0.006383142,-0.006222563,-0.005385951,-0.005707157,-0.007500548,-0.005438769,0.000963949,-0.005839986,-0.004281437,0.003946356,0.002107928,-0.002761209,-0.00366958,-0.005649466,-0.005043628
600.9854126,-0.006085001,-0.002611431,-0.007251799,-0.006572678,-0.006402273,-0.005377411,-0.005651561,-0.007499988,-0.005550264,0.000835289,-0.005943361,-0.004317884,0.003955813,0.002010186,-0.002681104,-0.003742728,-0.005681046,-0.005118182
599.982605,-0.006137683,-0.002531298,-0.007275474,-0.0065661,-0.006159173,-0.005093724,-0.005536616,-0.007469812,-0.005273902,0.001075547,-0.005700821,-0.004155206,0.004223889,0.002267358,-0.002606079,-0.003545841,-0.00564829,-0.004937531
599.0164795,-0.00601725,-0.00257906,-0.007340585,-0.00646624,-0.006250887,-0.00520674,-0.005607355,-0.007608106,-0.005360894,0.001077363,-0.005813934,-0.004118335,0.004359572,0.002404019,-0.002755705,-0.00368344,-0.005574849,-0.004807651
598.0131226,-0.006040329,-0.002729107,-0.007319714,-0.006548608,-0.006305692,-0.005196612,-0.005575156,-0.00761238,-0.005319523,0.001156363,-0.005773117,-0.004092949,0.004242318,0.002340016,-0.002707962,-0.003489198,-0.005575718,-0.004715324
597.0093994,-0.006020773,-0.002463865,-0.007226087,-0.006567732,-0.006148045,-0.005084617,-0.005342741,-0.00743317,-0.005352048,0.000863767,-0.005694127,-0.004226786,0.004394636,0.002026544,-0.002441986,-0.003279608,-0.005365599,-0.004658577
596.0054321,-0.006103022,-0.002506951,-0.007318391,-0.006616174,-0.006298701,-0.005045982,-0.005461418,-0.007606224,-0.005326682,0.000879745,-0.005799375,-0.004124695,0.004324902,0.002043449,-0.002726123,-0.00342931,-0.005530482,-0.004749328
595.0012207,-0.006167237,-0.002589868,-0.00740187,-0.00665574,-0.006314213,-0.005233443,-0.005519543,-0.00763924,-0.005474454,0.000824759,-0.005674608,-0.004180179,0.00438959,0.002216932,-0.002591617,-0.003137409,-0.005483094,-0.004728946
593.9967651,-0.006039869,-0.002349979,-0.007332949,-0.006572831,-0.005997796,-0.004892433,-0.005362684,-0.007433323,-0.005210168,0.001004812,-0.005428748,-0.004095616,0.004532282,0.00220538,-0.002428395,-0.003153446,-0.005261678,-0.00445283
592.9919434,-0.006107821,-0.002676679,-0.007439328,-0.006628157,-0.006204547,-0.005132867,-0.005441325,-0.007394133,-0.005362275,0.00107822,-0.005552411,-0.004091718,0.004473144,0.002350687,-0.002616062,-0.003195281,-0.005368105,-0.00453845
591.9869385,-0.006106596,-0.002647401,-0.007312282,-0.006698922,-0.006102511,-0.004857314,-0.005409932,-0.007337887,-0.00528587,0.001172092,-0.005548424,-0.003955018,0.004527495,0.002370025,-0.002451098,-0.002933975,-0.005326529,-0.00433767
590.9817505,-0.006278699,-0.002618738,-0.007413729,-0.006777474,-0.006225524,-0.004943315,-0.005527006,-0.007437801,-0.005222496,0.000996795,-0.005663774,-0.00397913,0.004417936,0.002268503,-0.002535055,-0.003082511,-0.00534407,-0.004541268
590.0134888,-0.006105013,-0.002667314,-0.007474951,-0.006683526,-0.006241701,-0.00498462,-0.005370917,-0.007443909,-0.005278965,0.001095918,-0.005470364,-0.004220633,0.004500842,0.002302801,-0.002478073,-0.003062823,-0.005103907,-0.004568165
589.0076904,-0.006144778,-0.002908571,-0.007388382,-0.00664228,-0.006171474,-0.005035799,-0.005401393,-0.007376115,-0.005297173,0.001085667,-0.005602244,-0.004005292,0.004609323,0.00233325,-0.002293642,-0.002885634,-0.005245565,-0.004242833
588.0015869,-0.005892341,-0.002756425,-0.007377846,-0.006740672,-0.006025471,-0.004884191,-0.005380837,-0.007408995,-0.005268071,0.001233975,-0.005618547,-0.003881239,0.004566105,0.002482922,-0.002262896,-0.002787856,-0.005054016,-0.004224838
586.9953003,-0.006080202,-0.00267035,-0.007589334,-0.006795823,-0.006089085,-0.005101349,-0.005340439,-0.007579566,-0.005207508,0.001236208,-0.00547241,-0.004072178,0.004676408,0.002399333,-0.002442244,-0.002808535,-0.005137062,-0.004237296
585.9887695,-0.006145902,-0.002711254,-0.007354584,-0.006732108,-0.006181018,-0.004918335,-0.005285154,-0.00736395,-0.005019524,0.001114007,-0.00546561,-0.003810526,0.004683368,0.002484119,-0.002020868,-0.002848655,-0.004902518,-0.004056432
584.9819946,-0.006146769,-0.002854621,-0.007456631,-0.006745158,-0.006178109,-0.005007549,-0.005128876,-0.007510114,-0.005044293,0.001200125,-0.005343047,-0.003831772,0.004505131,0.002534889,-0.002185635,-0.002855958,-0.005153434,-0.004313886
584.012207,-0.00590133,-0.002516216,-0.007279801,-0.00649057,-0.005799427,-0.004798793,-0.005084156,-0.007098061,-0.004770528,0.001323649,-0.005214005,-0.003673122,0.004794616,0.002801986,-0.001949645,-0.002503502,-0.004783176,-0.003884215
583.0048828,-0.005778788,-0.002519201,-0.007223541,-0.00647333,-0.005838454,-0.004930006,-0.004949713,-0.007210353,-0.004810774,0.001364156,-0.005173437,-0.003679539,0.004927361,0.002861913,-0.001864596,-0.002434984,-0.004584353,-0.003711314
581.9973145,-0.006135743,-0.002803391,-0.00748976,-0.006705498,-0.006066367,-0.005060771,-0.004928829,-0.007277001,-0.005024079,0.001136534,-0.005374803,-0.003677485,0.004970851,0.002541711,-0.001993401,-0.002517554,-0.004648742,-0.003998983
580.989563,-0.00595051,-0.00253593,-0.007409657,-0.006694894,-0.005884066,-0.004938094,-0.004924222,-0.007315285,-0.00495606,0.001361637,-0.00508124,-0.003554674,0.005117663,0.002774761,-0.001665412,-0.002454032,-0.004590142,-0.003718295
579.9813843,-0.005797792,-0.002443582,-0.007404923,-0.006670831,-0.005868131,-0.004918745,-0.004900112,-0.007162028,-0.004721418,0.001374907,-0.005172568,-0.003570797,0.005209741,0.002983461,-0.00162998,-0.00232315,-0.004436431,-0.003605353
579.010498,-0.00607331,-0.002559194,-0.00741322,-0.006754894,-0.005994834,-0.004951966,-0.005013792,-0.007212237,-0.004851017,0.00146274,-0.005166224,-0.003553955,0.005289391,0.002829995,-0.001688671,-0.002324077,-0.004445809,-0.003667167
578.0018921,-0.005896733,-0.002516834,-0.007407875,-0.006745922,-0.005973694,-0.004818915,-0.00496645,-0.006987981,-0.004595316,0.001491753,-0.005017887,-0.003464956,0.005320862,0.002980568,-0.001602384,-0.002308886,-0.004398969,-0.00340825
576.993042,-0.0060462,-0.002459129,-0.00753927,-0.006776964,-0.005856179,-0.004817482,-0.004975561,-0.007114053,-0.004716656,0.001534042,-0.005002789,-0.003453246,0.005476024,0.002972149,-0.001658295,-0.002164154,-0.00438303,-0.003480261
575.9839478,-0.006189695,-0.002590588,-0.007598848,-0.006881951,-0.005943208,-0.004912551,-0.005058724,-0.007236321,-0.004796489,0.001534328,-0.004932515,-0.003506453,0.005508295,0.002980151,-0.001655819,-0.002179556,-0.004228119,-0.003354414
575.0119629,-0.006274208,-0.002812702,-0.007689801,-0.006914257,-0.005961643,-0.004964864,-0.005044396,-0.007159634,-0.004736167,0.0013519,-0.005115573,-0.003571465,0.005283574,0.002946711,-0.001654943,-0.002177702,-0.004366065,-0.00332585
574.0024414,-0.005887488,-0.002389369,-0.007210404,-0.006453029,-0.005506048,-0.004574364,-0.004613552,-0.006769217,-0.004332083,0.001702228,-0.004650535,-0.003002568,0.005751887,0.003463363,-0.001184065,-0.001748954,-0.003804368,-0.002933923
572.9926147,-0.006032772,-0.002499127,-0.007409758,-0.006698718,-0.005794624,-0.004788245,-0.004727,-0.006963782,-0.004460772,0.001605746,-0.004736116,-0.003161361,0.005769305,0.003360724,-0.001288915,-0.001819436,-0.003864306,-0.002986835
571.9825439,-0.005910318,-0.002389729,-0.007202817,-0.006454917,-0.005552973,-0.004442991,-0.00439779,-0.00668164,-0.004171205,0.001786644,-0.004417009,-0.003024882,0.005889937,0.003532385,-0.000996139,-0.001569629,-0.003533928,-0.002644879
571.0096436,-0.006053042,-0.002752309,-0.007343792,-0.0067082,-0.005705369,-0.00444048,-0.004561197,-0.006782061,-0.004370678,0.001531107,-0.004499306,-0.003258489,0.006017978,0.003282574,-0.00105657,-0.001660306,-0.003536906,-0.002862439
569.9990234,-0.006049825,-0.00259944,-0.007328419,-0.006684698,-0.005626622,-0.004314296,-0.004380468,-0.006758309,-0.004362529,0.001874274,-0.004387489,-0.002939528,0.005935308,0.003574508,-0.000882229,-0.001478107,-0.003286236,-0.002534643
568.9882202,-0.006151874,-0.002655222,-0.007511335,-0.006743782,-0.00564829,-0.004580306,-0.004446322,-0.006672361,-0.004391897,0.001722239,-0.004414037,-0.003030023,0.005963414,0.003473435,-0.000784516,-0.001499107,-0.003334583,-0.002566914
568.0146484,-0.006097866,-0.002613643,-0.007314674,-0.006726501,-0.005669037,-0.004406298,-0.004310451,-0.006551974,-0.004098898,0.001935893,-0.004213814,-0.002926878,0.006029396,0.003783097,-0.00072043,-0.001275288,-0.003290603,-0.002316713
567.0032959,-0.006184949,-0.002524194,-0.007465791,-0.006666192,-0.005740572,-0.004503815,-0.004122694,-0.006574106,-0.004061202,0.001942316,-0.004188895,-0.002748863,0.006117098,0.003819342,-0.000579149,-0.001152259,-0.002873805,-0.002315889
565.9917603,-0.006061772,-0.002549827,-0.007257349,-0.006682506,-0.005460139,-0.004297534,-0.004177256,-0.006472259,-0.003834441,0.001983999,-0.004041916,-0.002728593,0.006319899,0.003975745,-0.000406271,-0.000928417,-0.002639785,-0.001784738
565.017334,-0.006026492,-0.002562539,-0.0072602,-0.006608118,-0.005424146,-0.004228273,-0.003991083,-0.006371918,-0.003829668,0.00219159,-0.004088898,-0.002566348,0.006645134,0.004014462,-0.000198604,-0.000832574,-0.002470145,-0.00187238
564.0053711,-0.00600566,-0.002396113,-0.007350563,-0.006625607,-0.005326478,-0.004136387,-0.003963227,-0.006222869,-0.003750067,0.002264522,-0.003680668,-0.002517297,0.006815469,0.00439244,-4.50E-05,-0.000634002,-0.002306156,-0.001615641
562.993042,-0.005943616,-0.002354046,-0.007366902,-0.006525812,-0.005438411,-0.004049303,-0.00398585,-0.006226493,-0.003637031,0.002368828,-0.003797234,-0.002532481,0.006867063,0.004384543,2.03E-05,-0.000394168,-0.002055032,-0.001407725
562.0180054,-0.005974358,-0.002357496,-0.007317576,-0.006592668,-0.005418624,-0.00407464,-0.003782864,-0.006075301,-0.003674662,0.002369609,-0.003611668,-0.002317691,0.007068031,0.004575601,0.000257642,-0.000210764,-0.001715539,-0.001064833
561.005249,-0.006145187,-0.002625171,-0.007382528,-0.006686177,-0.005435445,-0.00401868,-0.003948247,-0.006090004,-0.00362856,0.002306132,-0.003635286,-0.00237974,0.007062847,0.004601343,0.000418104,-8.15E-05,-0.001654014,-0.000950372
559.9921875,-0.006330949,-0.002668189,-0.007642648,-0.006854076,-0.005526495,-0.00430794,-0.004020681,-0.006183673,-0.003606534,0.002285236,-0.003577267,-0.00232382,0.007017254,0.004641948,0.000394189,-3.23E-05,-0.001517215,-0.000784774
559.0163574,-0.006038644,-0.002504068,-0.007417749,-0.006567528,-0.005460702,-0.003999239,-0.003763156,-0.005863483,-0.003245643,0.002468707,-0.003404347,-0.00218342,0.007432086,0.005010888,0.00085666,0.000390925,-0.00108012,-0.000286256
558.0029297,-0.006094445,-0.002442295,-0.007435409,-0.006665937,-0.00538774,-0.003810424,-0.003760795,-0.005900666,-0.003374706,0.002710965,-0.003335714,-0.001912071,0.00755197,0.005279381,0.001022715,0.000661994,-0.000550763,0.000373488
556.9891968,-0.005990852,-0.002309246,-0.007326128,-0.006468485,-0.00523109,-0.003728304,-0.003508148,-0.005654831,-0.002993622,0.002885808,-0.002924821,-0.001670312,0.007811681,0.005514587,0.00154568,0.00101641,-0.000115074,0.000875517
556.0127563,-0.005959549,-0.002295496,-0.007275067,-0.006318805,-0.005241064,-0.0037262,-0.003377583,-0.005450221,-0.002901474,0.00314084,-0.002697672,-0.001547911,0.00828682,0.005975853,0.001974247,0.001483103,0.000432252,0.001572179
554.9985352,-0.006032976,-0.002420209,-0.007284842,-0.006487255,-0.005181981,-0.003572646,-0.003443179,-0.00545063,-0.002833996,0.003236359,-0.002519305,-0.001405609,0.008602547,0.006242423,0.002209647,0.001818954,0.000967166,0.002010863
553.9840088,-0.006022969,-0.002398739,-0.007293751,-0.006377173,-0.005149904,-0.003449342,-0.003366127,-0.005239376,-0.002502936,0.00338089,-0.002290037,-0.00101897,0.008870682,0.006683381,0.002767597,0.002401832,0.001653738,0.002754571
553.006897,-0.006021131,-0.002449399,-0.007319663,-0.006437369,-0.005196254,-0.003365203,-0.003216249,-0.005161517,-0.00232073,0.003370925,-0.00205091,-0.000992989,0.009256534,0.006932578,0.003097143,0.002821501,0.002248311,0.003595754
551.9919434,-0.005825019,-0.002300028,-0.007244569,-0.006164839,-0.004990301,-0.003212497,-0.002902708,-0.004910965,-0.002175332,0.003819864,-0.001683772,-0.000720378,0.009863946,0.007700105,0.003902525,0.003638458,0.00333156,0.004709614
551.0143433,-0.005880747,-0.002300543,-0.007173995,-0.006183162,-0.004907023,-0.003161618,-0.002751229,-0.004765612,-0.001880989,0.003997872,-0.001428985,-0.000353148,0.010244269,0.007988854,0.004380882,0.004362056,0.004126794,0.005701002
549.9989014,-0.005923954,-0.002273814,-0.007226443,-0.006259511,-0.004938248,-0.003104153,-0.002713415,-0.0046281,-0.001710588,0.004278915,-0.001092307,-0.00017278,0.010625958,0.008771037,0.005137648,0.005210893,0.005121304,0.006950464
548.9832153,-0.005983703,-0.002139529,-0.007130045,-0.006216133,-0.004943827,-0.002869382,-0.002790788,-0.004369909,-0.001379548,0.004735155,-0.000659901,0.000488665,0.011282153,0.009652814,0.006152778,0.006096832,0.006506503,0.008465771
548.0048828,-0.005939377,-0.002184141,-0.007169361,-0.006233791,-0.004905231,-0.002868765,-0.00259805,-0.004171923,-0.001195476,0.004988237,-0.000310934,0.000793482,0.012015629,0.010445665,0.007161444,0.007134628,0.007921836,0.010151939
546.9887695,-0.005907611,-0.002142826,-0.007085276,-0.006199392,-0.004780923,-0.002663043,-0.002379843,-0.003990313,-0.00089654,0.005173667,0.000240703,0.001167602,0.012784015,0.011134277,0.008211393,0.008338431,0.009270946,0.011824675
546.0100708,-0.006019292,-0.002251205,-0.007208418,-0.006171627,-0.004781793,-0.002576847,-0.00217255,-0.003857019,-0.000636277,0.005525939,0.000759848,0.001606448,0.013663916,0.01204799,0.009128354,0.009459722,0.010750575,0.013662928
544.9934692,-0.006060597,-0.002255119,-0.007250781,-0.00618107,-0.00481697,-0.00249681,-0.002134841,-0.003548614,-0.000238707,0.006076907,0.001321676,0.002195233,0.014505935,0.013247548,0.010376781,0.010905486,0.012709723,0.015779093
544.0142822,-0.006029709,-0.002184295,-0.007210556,-0.0060874,-0.004710612,-0.002265265,-0.001930524,-0.003200215,0.000344809,0.006771505,0.002263611,0.00297413,0.015755041,0.014830263,0.012136065,0.012890292,0.015085896,0.018663889
542.9971313,-0.00593141,-0.002176569,-0.007191767,-0.005999328,-0.004580613,-0.001984434,-0.001565244,-0.002604689,0.001142996,0.007541513,0.003276784,0.003969736,0.017461937,0.016745497,0.014211617,0.015096215,0.017906563,0.022025352
542.0174561,-0.006036346,-0.002243839,-0.007199914,-0.005906897,-0.004554281,-0.001758441,-0.001307807,-0.002168172,0.001637705,0.008034945,0.004125148,0.004769569,0.018823784,0.018204449,0.016182419,0.017164748,0.020465655,0.025075857
540.999939,-0.006025318,-0.002289316,-0.007041777,-0.005818787,-0.004297277,-0.001365046,-0.000899899,-0.001504421,0.002253958,0.008651001,0.005234132,0.005558607,0.020451464,0.019828802,0.018173866,0.019402046,0.023168283,0.028169069
539.9821777,-0.00604089,-0.002432616,-0.007169921,-0.005829106,-0.004238014,-0.001220309,-0.000723996,-0.00101866,0.002972644,0.009692597,0.006278192,0.006499434,0.022188069,0.022037279,0.020572716,0.021970999,0.026275171,0.031784311
539.0018921,-0.006047425,-0.002315838,-0.007171856,-0.005815262,-0.004175564,-0.000894061,-0.000176817,-0.000235705,0.004212336,0.011054026,0.007923392,0.007943191,0.024679067,0.024902731,0.023590341,0.025236182,0.030086132,0.036465611
537.9836426,-0.006045587,-0.00201891,-0.007115072,-0.005655291,-0.004050841,-0.000508672,0.000376545,0.0007766,0.005483967,0.012665611,0.009866673,0.009889713,0.027601946,0.028285533,0.027268328,0.029016467,0.034689058,0.041683294
537.0028687,-0.006118439,-0.00214566,-0.0071413,-0.005654576,-0.003905252,-8.60E-05,0.000951782,0.001507702,0.006528339,0.013819469,0.011590946,0.011120308,0.029926142,0.030896312,0.030347243,0.032447349,0.03876571,0.046251629
535.9840698,-0.006081836,-0.002044932,-0.007111914,-0.00557536,-0.003629741,0.000558694,0.001568308,0.002764288,0.007886301,0.015397542,0.013563699,0.012932827,0.032726325,0.034221686,0.03385387,0.036314059,0.043144453,0.051234707
535.0028687,-0.00600954,-0.00180036,-0.007042184,-0.005322898,-0.003322972,0.001128929,0.002346627,0.003920183,0.009607716,0.017484546,0.015957695,0.014866318,0.036239598,0.038134933,0.038006499,0.040375672,0.047910389,0.056828551
533.9837036,-0.006182601,-0.002016436,-0.007126735,-0.005413358,-0.003368182,0.001545862,0.003098733,0.005199444,0.011257632,0.019198159,0.018327992,0.017079659,0.039728623,0.041782893,0.042185873,0.044710156,0.052876886,0.062581986
533.0020752,-0.006146769,-0.002182956,-0.007027615,-0.005263058,-0.002952898,0.002344831,0.004092744,0.006706672,0.013002544,0.020964902,0.020744313,0.018857684,0.042971008,0.045251179,0.046239909,0.048930489,0.057404127,0.067611158
531.9824219,-0.006109863,-0.001977682,-0.00703164,-0.005101298,-0.00261987,0.003194477,0.00525918,0.008535698,0.01541401,0.023867402,0.023944039,0.021421669,0.047692727,0.050176669,0.051387362,0.054270476,0.063160874,0.074452534
531.0003052,-0.006129771,-0.002067501,-0.006991089,-0.00491076,-0.00225105,0.004183454,0.006484089,0.010416021,0.017798997,0.026691781,0.027255347,0.024406636,0.052070882,0.055198137,0.056505855,0.05943045,0.068793133,0.080595002
530.0180664,-0.00615856,-0.00174488,-0.006977945,-0.004786914,-0.001912483,0.005189018,0.007660715,0.012420242,0.020445604,0.029458128,0.030547574,0.027152412,0.056587268,0.060056511,0.061433144,0.064415872,0.074094504,0.086674057
528.9976807,-0.006207916,-0.002170593,-0.006906664,-0.00452062,-0.001642307,0.006344484,0.009114608,0.014507193,0.022934238,0.03181364,0.03384262,0.029712044,0.060809176,0.064110294,0.066302575,0.069208995,0.079288438,0.092002228
528.0148926,-0.006137836,-0.002276235,-0.006811113,-0.004243807,-0.000988495,0.007546307,0.010682678,0.016862972,0.02568607,0.034472346,0.037320033,0.032340754,0.065258853,0.068698972,0.071070127,0.073893547,0.084154852,0.097302452
526.9942017,-0.006148351,-0.002025248,-0.006796588,-0.003904688,-0.000360287,0.009090156,0.012690691,0.019753674,0.029144868,0.038523395,0.041653633,0.035722379,0.070778482,0.074334256,0.077005059,0.079360217,0.089892946,0.103655256
526.0109863,-0.00616346,-0.001769888,-0.006647939,-0.00350897,0.000254974,0.01073155,0.014632954,0.0226686,0.03268845,0.041915722,0.045896791,0.038785692,0.075637959,0.079453237,0.082327142,0.084633529,0.094992794,0.109213658
524.9897461,-0.006086022,-0.001916762,-0.00652571,-0.003149334,0.001011818,0.012416912,0.016756579,0.025648365,0.036006138,0.045512259,0.049954418,0.041832883,0.080462977,0.084289514,0.087160744,0.089295872,0.099734008,0.114265308
524.0060425,-0.006110781,-0.001699862,-0.006415485,-0.002543187,0.001907605,0.014406487,0.019231385,0.029180303,0.040028408,0.049483359,0.054341171,0.045146994,0.085924558,0.0895546,0.092457421,0.094282292,0.104507767,0.119386874
522.984436,-0.006133344,-0.001911401,-0.006297426,-0.002076931,0.002780518,0.016369654,0.021659989,0.032412484,0.043934446,0.053218953,0.058764093,0.048358213,0.090640023,0.09420611,0.09750025,0.09878733,0.108818188,0.123820558
522.0003662,-0.006000758,-0.001619096,-0.006094088,-0.001419284,0.00373064,0.018541925,0.024300843,0.035878364,0.048046492,0.057031501,0.062862374,0.051361896,0.095624313,0.098600119,0.101962946,0.103006579,0.112651795,0.127931878
521.0159912,-0.006053807,-0.001380477,-0.005918745,-0.000822808,0.00470472,0.020742765,0.02681892,0.039261293,0.051786698,0.060661599,0.066689976,0.054142874,0.099756382,0.102719747,0.105925344,0.106584355,0.116084151,0.131281465
519.9937134,-0.00602353,-0.001320659,-0.005672563,8.44E-05,0.006054594,0.023410376,0.029911777,0.043390766,0.056213249,0.064890489,0.071159072,0.057311606,0.104757369,0.106978588,0.110340796,0.110629775,0.119776741,0.134925321
519.0089722,-0.006009795,-0.001238687,-0.005448227,0.000817082,0.007231267,0.025867997,0.032899637,0.047250435,0.060178846,0.068278268,0.074999973,0.059847478,0.108662374,0.110799596,0.113875844,0.113628179,0.122379236,0.137684166
517.9862061,-0.006044924,-0.001508651,-0.005250936,0.001611358,0.00844228,0.028351735,0.035542376,0.050491087,0.063881189,0.071382314,0.078216076,0.062094532,0.112209506,0.113634601,0.116629474,0.116100892,0.124536276,0.13974072
517.0010986,-0.006107157,-0.001341253,-0.004954217,0.002538457,0.009844827,0.030825386,0.038438313,0.054256748,0.067591742,0.074845031,0.081675291,0.06420593,0.115510911,0.116555221,0.119504146,0.118484788,0.126537085,0.141699925
516.0157471,-0.005906181,-0.001050579,-0.004589834,0.00367477,0.011304363,0.033736851,0.041451421,0.057825983,0.07145793,0.077989198,0.084909484,0.066459231,0.118414231,0.11947415,0.122058466,0.120670579,0.128323138,0.143214822
514.9923096,-0.005913178,-0.000947221,-0.00415695,0.004936813,0.013131578,0.036884595,0.044830538,0.061844546,0.075303487,0.081271142,0.088188306,0.068592764,0.12143442,0.121966764,0.124353766,0.122507304,0.129784674,0.144603282
514.0065308,-0.006071166,-0.000798882,-0.003958405,0.00621913,0.014864496,0.039930716,0.048151985,0.065404177,0.078913637,0.084103324,0.090968043,0.070352778,0.123904809,0.123927049,0.12616615,0.123986282,0.130632743,0.145375311
512.9825439,-0.006058658,-0.000736814,-0.003501215,0.00753132,0.016554145,0.042952575,0.051086184,0.068714559,0.082056016,0.086527698,0.093251012,0.07170023,0.125861913,0.125409558,0.12755692,0.125074476,0.131219059,0.145833194
511.9963989,-0.006039665,-0.00049171,-0.003002054,0.008905822,0.018103531,0.04530824,0.053656913,0.071521103,0.08470349,0.088501878,0.095022529,0.072676383,0.127169132,0.126530081,0.128464907,0.125642538,0.131532624,0.145916507
511.0099182,-0.005971498,-0.000177024,-0.002445847,0.010280713,0.019773938,0.04799448,0.056232754,0.074238732,0.086950205,0.090298161,0.096627265,0.073613338,0.128461465,0.127295941,0.129120335,0.126224726,0.1316237,0.145881116
509.9854126,-0.005955617,-3.66E-05,-0.00184047,0.011954611,0.021655364,0.050823454,0.058966175,0.076911323,0.089529149,0.092067853,0.09813796,0.074472539,0.129393175,0.127966672,0.129691184,0.126368746,0.131543204,0.145431861
508.9985657,-0.005804382,0.000244873,-0.001092669,0.013761404,0.023661161,0.053529665,0.061614752,0.079506047,0.091654629,0.093675077,0.099465758,0.075237572,0.130129889,0.128370211,0.130035833,0.126344368,0.131158635,0.144950658
508.0115356,-0.005915221,0.000415332,-0.000478937,0.015345246,0.025312843,0.056005053,0.063779987,0.081373408,0.093251564,0.094528534,0.100189135,0.075510822,0.130425841,0.128409386,0.129812837,0.125918716,0.130432233,0.14399524
506.9863586,-0.005905058,0.000620697,0.000238838,0.016974049,0.026811155,0.058232322,0.065691061,0.083197571,0.094641633,0.095376447,0.100658767,0.075691573,0.130548611,0.128226861,0.12952365,0.125486076,0.12973313,0.143127963
505.9988098,-0.00588662,0.000886437,0.00103914,0.018585071,0.028363617,0.059970643,0.067322217,0.084451377,0.095643543,0.09585914,0.101093166,0.075729512,0.130638972,0.127924383,0.129086703,0.124905847,0.128838226,0.142082855
505.0112,-0.005857149,0.001183591,0.001797379,0.020305751,0.029909613,0.062023278,0.069001965,0.085827559,0.096538506,0.096243858,0.101229392,0.075796112,0.130234718,0.12744078,0.128459513,0.124080375,0.127814844,0.140900418
503.9853516,-0.005704295,0.001515287,0.002841224,0.022176901,0.031554792,0.063771173,0.070323221,0.086871721,0.097200967,0.096495703,0.101211645,0.075490095,0.129851624,0.12678422,0.127928823,0.123368777,0.126612261,0.139541954
502.9971924,-0.005644151,0.001974768,0.00382245,0.023840383,0.033059135,0.065387174,0.07166478,0.087603033,0.097749099,0.096611097,0.101120412,0.075272456,0.12937139,0.125983641,0.126887351,0.122399613,0.125537634,0.138279438
502.0089111,-0.005640216,0.002345091,0.004627165,0.025521735,0.034142036,0.066583022,0.072570331,0.088088386,0.097775459,0.096442111,0.100613758,0.074890889,0.128493309,0.125093117,0.126025066,0.121407345,0.124279834,0.136786431
500.9823914,-0.00558226,0.002714976,0.005519961,0.026956037,0.035298143,0.067684449,0.073073953,0.088389002,0.097940095,0.096188165,0.100153633,0.074459478,0.12758106,0.124293968,0.124982365,0.120381981,0.122989759,0.135322139
499.9936829,-0.005484883,0.003261162,0.006532701,0.028557478,0.036531553,0.068576701,0.073794283,0.088620685,0.097810507,0.095867217,0.099662036,0.073997281,0.126800925,0.123394266,0.123857603,0.119287483,0.121672712,0.133910671
499.0047913,-0.005317937,0.004049186,0.007625597,0.030114347,0.037470751,0.069381766,0.074116915,0.088631578,0.09758006,0.095312804,0.099097334,0.073569022,0.125869319,0.122429639,0.122723416,0.118079737,0.120486982,0.132410973
498.0157166,-0.00524132,0.004417178,0.008480368,0.031390753,0.038231369,0.069903046,0.074254639,0.08837609,0.097033143,0.094741426,0.098196924,0.072922736,0.1245839,0.121069267,0.121532627,0.116770998,0.119092144,0.130812243
496.9883118,-0.005194259,0.004816733,0.009455039,0.032572307,0.038940743,0.070284173,0.074347802,0.088060483,0.096469164,0.093856029,0.097443685,0.072212748,0.123728409,0.119842678,0.120397143,0.115523033,0.117702723,0.129462615
495.9987793,-0.005107233,0.005359385,0.010458604,0.033633295,0.039488602,0.070632562,0.074328355,0.087766074,0.095948376,0.093368366,0.096724637,0.071672723,0.122891367,0.118905574,0.11934489,0.114598535,0.116640851,0.128138363
495.0090942,-0.004987794,0.006111008,0.011416922,0.034829777,0.040009588,0.070757121,0.074120231,0.08718767,0.095280923,0.092595384,0.095821187,0.071125925,0.121701695,0.117811628,0.118148334,0.113415942,0.1154356,0.126732677
493.9810791,-0.004854447,0.006984555,0.012391714,0.035876594,0.040428769,0.070900433,0.073958173,0.086785667,0.094705984,0.092120491,0.095060386,0.070537604,0.120821975,0.116949745,0.117099844,0.112362102,0.11427895,0.12563318
492.9909973,-0.004777185,0.007653154,0.013166185,0.036669519,0.040704988,0.070671886,0.073616527,0.085992523,0.093815744,0.09145283,0.094149321,0.069884039,0.119656429,0.116020918,0.115879059,0.111285433,0.113047347,0.124236241
492.0005493,-0.004842876,0.007792943,0.013792907,0.037191983,0.040547375,0.070310533,0.073059931,0.085291736,0.092924729,0.090214796,0.093216591,0.069035135,0.118106134,0.114445515,0.11482919,0.110149473,0.112013467,0.123160876
491.0100098,-0.004568677,0.008271359,0.014662459,0.037797138,0.040856171,0.070308127,0.072806671,0.084891416,0.092349119,0.089478411,0.092511617,0.068429217,0.117299207,0.113558978,0.11391703,0.109295987,0.111273527,0.121994905
489.9812012,-0.004377905,0.009137237,0.015507143,0.038412832,0.040958736,0.06984245,0.072312839,0.084020548,0.091485992,0.088872284,0.091512777,0.067874834,0.116291307,0.112714239,0.112991706,0.108296067,0.110075891,0.120811276
488.9902039,-0.004210123,0.010051205,0.016136261,0.038816065,0.040801801,0.069358625,0.0716791,0.083230518,0.090567566,0.088055857,0.09071029,0.067447066,0.115396671,0.111868665,0.112048447,0.107382834,0.109210067,0.119902924
487.999115,-0.004132233,0.01042379,0.016662184,0.038977213,0.040577982,0.068859801,0.070991501,0.082466684,0.089657851,0.087166533,0.089893937,0.066766799,0.114232577,0.110633984,0.110975228,0.106385745,0.108197987,0.119073242
487.007782,-0.003784609,0.010800675,0.017230919,0.039259396,0.040559508,0.068569124,0.070642367,0.081953153,0.08906237,0.086474277,0.089246593,0.066241913,0.113333799,0.109772414,0.110242426,0.10584861,0.107504696,0.11852444
486.0161743,-0.003504707,0.011843429,0.017779661,0.039417986,0.040422715,0.068027973,0.06996721,0.081156015,0.088366099,0.086009309,0.088523619,0.065823011,0.112782165,0.109406337,0.109430082,0.105129935,0.106851906,0.117624417
484.9863586,-0.003370288,0.01276746,0.018108847,0.039345514,0.039949078,0.067250587,0.069120474,0.080085792,0.087351225,0.085147634,0.08759106,0.065420009,0.111899979,0.108547792,0.108644255,0.1043844,0.106157124,0.116928838
483.9944153,-0.003060252,0.012649381,0.018494733,0.039346676,0.039724652,0.0669576,0.068863928,0.079761252,0.086745173,0.084246106,0.087090574,0.064830467,0.111087441,0.107428379,0.108111687,0.103690557,0.105686195,0.116388388
483.0022583,-0.002771138,0.01296987,0.018711722,0.039271325,0.039599378,0.066372663,0.068313017,0.079127707,0.086132839,0.083616316,0.086409524,0.064267062,0.110723667,0.106931299,0.10758017,0.103313051,0.105257601,0.115968578
482.0099182,-0.002392509,0.013789086,0.019024791,0.039182615,0.039402481,0.06591408,0.067863032,0.078489967,0.085632071,0.083397605,0.086033076,0.06413541,0.110240556,0.106786095,0.10739927,0.103178695,0.105065011,0.115778141
481.017395,-0.002025506,0.014351983,0.019192206,0.03897744,0.039046142,0.065330215,0.06717407,0.077793397,0.084952138,0.08297246,0.085474305,0.063779987,0.109813809,0.106254578,0.106987767,0.102791011,0.104675241,0.115537122
479.9864502,-0.001773549,0.014925522,0.019222779,0.038608406,0.03851686,0.064592689,0.066440381,0.076923624,0.084236927,0.082426406,0.08485201,0.063382655,0.109388284,0.10593079,0.106543131,0.102276638,0.104330383,0.115299165
478.9935303,-0.00140437,0.01513993,0.019271676,0.03829461,0.038131427,0.064148344,0.066003449,0.076439969,0.083722025,0.082069553,0.084570684,0.063187882,0.108940356,0.105715878,0.106251732,0.102125838,0.104395166,0.115343288
478.0004272,-0.000907493,0.015764812,0.019460328,0.038144145,0.037982769,0.06384559,0.065779604,0.076166347,0.083479196,0.081715159,0.084296644,0.063182645,0.108912185,0.105658889,0.106323116,0.102181517,0.104473919,0.115621023
477.007019,-0.000577287,0.01598984,0.019420182,0.037884094,0.037668072,0.06339886,0.06535507,0.07578662,0.083118692,0.08134225,0.08410012,0.063023001,0.108823411,0.105469719,0.106260099,0.102234609,0.104569905,0.115809701
476.0135193,-0.000117713,0.016255427,0.019453127,0.037648845,0.037430372,0.063078851,0.065001629,0.075424246,0.082856655,0.081221484,0.084036313,0.063041203,0.108544633,0.10553173,0.106381811,0.102357529,0.10482429,0.116267555
474.9816589,0.000356596,0.01669753,0.019235091,0.037294842,0.037091319,0.062646873,0.064647511,0.075134039,0.082594655,0.08108291,0.0839637,0.062977903,0.108686082,0.105607554,0.106466383,0.102545843,0.105097719,0.116625175
473.9876709,0.000922727,0.016814886,0.019224782,0.036984026,0.036831815,0.062326401,0.064376779,0.074875109,0.082382403,0.080865748,0.08382377,0.063148931,0.108938165,0.105753295,0.106678166,0.102772184,0.1055317,0.117075987
472.9935913,0.001269204,0.0169832,0.019117594,0.036641944,0.036532283,0.062005453,0.064099431,0.0746575,0.082224995,0.080849193,0.083846472,0.063105255,0.109091677,0.105890922,0.107088983,0.103079669,0.105936542,0.117601037
471.9993286,0.001686999,0.017076455,0.01891968,0.036373843,0.036398105,0.061870843,0.063897647,0.074458838,0.082181953,0.080845453,0.083880663,0.063209139,0.109298684,0.106147073,0.107401393,0.103461206,0.106500357,0.118163519
471.0048218,0.002146506,0.017378487,0.018871067,0.03609724,0.036188614,0.061714221,0.063810214,0.07449162,0.08221186,0.080817729,0.084101029,0.06331329,0.109666705,0.106687464,0.107916832,0.104043521,0.107173726,0.118952893
470.0101624,0.002734851,0.0174438,0.018783022,0.035826046,0.036020849,0.061525323,0.063756876,0.074572325,0.082438201,0.081100754,0.084470682,0.063797891,0.110224336,0.107166834,0.108439855,0.104808636,0.10805548,0.120051801
469.0152893,0.003097143,0.01753171,0.018628571,0.035558362,0.035873108,0.06140082,0.063672312,0.074528866,0.082581505,0.081306137,0.084754147,0.063987054,0.110621996,0.107755199,0.109078534,0.105426781,0.108825505,0.121143229
467.9819031,0.00360917,0.017644763,0.018543007,0.035392858,0.035871532,0.061453659,0.063706152,0.0747196,0.082816876,0.081663139,0.085143976,0.064307436,0.111149028,0.10842178,0.109936699,0.106288366,0.109869413,0.122265197
466.9866638,0.003917779,0.017550334,0.018273208,0.035206676,0.035658866,0.06138096,0.06371931,0.074827529,0.083000757,0.081830561,0.085477516,0.064713821,0.11159198,0.108906396,0.110433556,0.106927626,0.110614717,0.123072058
465.9912415,0.004608747,0.01766094,0.018248506,0.035104759,0.035754111,0.061522044,0.06395451,0.075129606,0.083478443,0.082315914,0.086073026,0.065229312,0.11234732,0.109866448,0.111496732,0.107904218,0.11170271,0.124438047
464.9955444,0.005019006,0.017623169,0.018014451,0.034939233,0.035592861,0.06155524,0.06414444,0.075449593,0.083860159,0.082794949,0.086536445,0.065741807,0.113095172,0.11063195,0.112267226,0.108889699,0.112744108,0.125713557
463.9997253,0.005408606,0.017567128,0.017879292,0.034771666,0.03559643,0.061702494,0.064298011,0.075744517,0.084333517,0.083114117,0.087151699,0.066031657,0.113978684,0.111451022,0.113274999,0.109800614,0.113939844,0.126882523
463.0037537,0.005784415,0.017435502,0.017690139,0.034685582,0.035590418,0.061773125,0.064440459,0.076061755,0.084756508,0.083651595,0.087854326,0.066560693,0.114985272,0.112324484,0.114319466,0.110746481,0.115008615,0.128330618
462.0075378,0.006124581,0.017253194,0.017509907,0.034579806,0.035582975,0.061903887,0.064698078,0.076424688,0.085285433,0.084208682,0.088524416,0.06713035,0.11575719,0.113422357,0.115330733,0.111761876,0.116121933,0.129641324
461.0111389,0.006550439,0.01754082,0.01752713,0.034583058,0.035641443,0.062205613,0.065083653,0.077079274,0.085982233,0.084912255,0.08936815,0.06784872,0.116909795,0.114478298,0.116457291,0.112993486,0.117423683,0.131012544
460.0145264,0.006923688,0.017129283,0.017544728,0.03454132,0.035738315,0.062517561,0.065542988,0.07773646,0.086684488,0.08538644,0.090079248,0.06833259,0.117735311,0.115268819,0.117580131,0.11412295,0.1187675,0.132439107
459.0177917,0.007505719,0.017119024,0.017633386,0.034804564,0.036209013,0.063208267,0.066237293,0.078672059,0.087656781,0.086355105,0.091168053,0.069255166,0.119095825,0.116608955,0.119061634,0.115528472,0.120373815,0.134044051
457.9824219,0.007742477,0.017084586,0.017462583,0.034791522,0.03625834,0.063472494,0.066630036,0.079250783,0.08843378,0.087090008,0.091995925,0.069948599,0.120243885,0.117926747,0.12024381,0.116839491,0.121647462,0.135662586
456.9852905,0.008138695,0.017094549,0.017408583,0.034947872,0.036508575,0.064004816,0.067246839,0.079968177,0.089234069,0.088001899,0.09297128,0.070594557,0.121477462,0.119065039,0.121575952,0.118042402,0.123048209,0.137153909
455.9880066,0.008362841,0.016857106,0.017381962,0.035032805,0.036827844,0.064597137,0.067750193,0.080775917,0.090220183,0.088892199,0.094097912,0.071544386,0.122779287,0.120295301,0.122903593,0.119360052,0.124525033,0.138850346
454.9904175,0.008678439,0.016855249,0.017412839,0.035209622,0.037051003,0.065027304,0.068419732,0.081639953,0.091188557,0.089828037,0.094945148,0.072319932,0.124151789,0.121644519,0.124179184,0.120776132,0.125846103,0.140421376
453.9927063,0.009035046,0.016939191,0.017510876,0.035444707,0.037411552,0.065673746,0.069212146,0.082481615,0.092235975,0.090843804,0.096173234,0.073144287,0.125423938,0.122985326,0.125797004,0.122178726,0.127285495,0.142111793
452.9948425,0.009285333,0.016942233,0.017702298,0.03571732,0.037753142,0.066356741,0.069940902,0.08342769,0.093162984,0.091723368,0.097183481,0.073891707,0.126693443,0.124119513,0.127070651,0.123440631,0.128700435,0.143564493
451.9967957,0.009348224,0.016690239,0.017538907,0.035875496,0.038012661,0.066831224,0.070514068,0.084183946,0.094139323,0.092480801,0.098024108,0.07457792,0.127686217,0.125174537,0.128060564,0.124406986,0.12985912,0.144934431
450.9985046,0.009591836,0.016800489,0.017836729,0.036277842,0.0384509,0.067579307,0.071294427,0.085251853,0.095215231,0.093618013,0.099211305,0.075475216,0.129137307,0.126520455,0.129488528,0.125981882,0.131367743,0.146512881
450.000061,0.009860821,0.016886573,0.0179957,0.036706954,0.038936071,0.068452373,0.072202474,0.086201146,0.096331805,0.094536066,0.100402698,0.076399162,0.130561858,0.127893344,0.131091416,0.12730591,0.132838726,0.148065254
449.0014648,0.010095501,0.016988045,0.018217217,0.037043985,0.039375044,0.069160849,0.073004618,0.087244853,0.097424507,0.095587596,0.101454034,0.077198341,0.131738409,0.129180208,0.132259667,0.12865679,0.134155408,0.149512991
448.002655,0.010109332,0.016818007,0.018256363,0.037290808,0.039718807,0.069765054,0.073767036,0.088122219,0.098417856,0.096460894,0.102414087,0.077855982,0.133043796,0.13032721,0.133554623,0.129839748,0.135503486,0.151150256
447.0036316,0.010220522,0.016933378,0.018346731,0.037566084,0.040128391,0.070467301,0.074491374,0.08904244,0.099370368,0.097232312,0.103385598,0.078546479,0.13401553,0.131304339,0.134567276,0.130942896,0.136689395,0.152457058
446.0044556,0.010430843,0.017035559,0.018672589,0.038097713,0.0406821,0.07146702,0.075469032,0.090163954,0.100504026,0.098260276,0.10450872,0.079418957,0.135234624,0.132598832,0.136146784,0.132243648,0.138123334,0.153995723
445.0050964,0.010646465,0.017126134,0.018870553,0.038584214,0.0412446,0.072291441,0.076334968,0.091185428,0.101613134,0.099169441,0.105716474,0.080222249,0.136752099,0.133961231,0.13723965,0.133654371,0.139487952,0.155582383
444.0055847,0.010614579,0.017086362,0.018989688,0.038972456,0.041711535,0.073014937,0.077080421,0.092112906,0.102762379,0.100232981,0.106543459,0.081067465,0.137912229,0.135136947,0.138633147,0.134868354,0.140845627,0.156997263
443.0058289,0.010828434,0.01731267,0.019201757,0.039526932,0.042250261,0.073874056,0.077983931,0.09318582,0.103795119,0.101265505,0.107741796,0.081848718,0.139253244,0.136499152,0.139973939,0.136185184,0.142301276,0.158619225
442.0059814,0.010983719,0.017518586,0.019583957,0.040001728,0.042792056,0.074698821,0.078922018,0.094161063,0.10485138,0.102088995,0.108779013,0.082671896,0.140451804,0.137685433,0.141383067,0.137529358,0.143698931,0.160134256
441.0058899,0.011053574,0.017574405,0.019828532,0.040429875,0.04328857,0.07546299,0.079766542,0.095133305,0.105798371,0.102920875,0.10980431,0.083316848,0.141533688,0.138756096,0.142513782,0.138796896,0.14509666,0.161734864
440.0055847,0.011160863,0.017764641,0.020139642,0.040987838,0.043918721,0.076411352,0.080651917,0.096163385,0.106892295,0.103941761,0.110868156,0.084085137,0.142747566,0.139970511,0.143848598,0.140211687,0.146500588,0.163321033
439.0051575,0.011214331,0.017982883,0.020437464,0.041404348,0.044371855,0.07706292,0.081313379,0.096991234,0.107725076,0.104741685,0.111859456,0.084874079,0.143836305,0.141144797,0.145122439,0.141443729,0.147935242,0.164869413
438.0045776,0.011304522,0.018069824,0.020682653,0.041919459,0.04486943,0.077862114,0.082165159,0.097966403,0.10884323,0.105740413,0.11281126,0.085623905,0.145065531,0.142379135,0.146424681,0.142671302,0.149343103,0.166539595
437.0038147,0.011532913,0.018256929,0.021115428,0.042612869,0.045611586,0.078764647,0.083233029,0.099106021,0.109857582,0.106752858,0.113902591,0.086503908,0.146437377,0.143766299,0.147885576,0.144234359,0.150982603,0.168310225
436.0027771,0.011598949,0.018422725,0.021300234,0.04312038,0.046055637,0.079556756,0.083924569,0.100012101,0.110916339,0.107613295,0.11504475,0.087263428,0.147644609,0.145075321,0.149311572,0.145530284,0.152558893,0.170304194
435.0016785,0.01173286,0.018677264,0.02170486,0.043689083,0.046661373,0.080424473,0.084814057,0.100975603,0.111981139,0.108580962,0.116115399,0.088150188,0.149051681,0.146434546,0.150706917,0.147032976,0.154172123,0.171990559
434.0003662,0.011998544,0.019035717,0.022071404,0.044295482,0.047279906,0.08128038,0.085813172,0.102083661,0.113176964,0.109640546,0.11728283,0.089057125,0.150403589,0.147933468,0.152423665,0.148621619,0.155947462,0.173943043
432.9988708,0.012061563,0.01903761,0.022333244,0.044838976,0.047739822,0.081974506,0.086547002,0.102962777,0.113944352,0.110509932,0.118273631,0.089803427,0.151719958,0.149160788,0.153717935,0.15006119,0.157470822,0.175666973
431.9971619,0.012239149,0.019252328,0.022689927,0.045474719,0.048436835,0.082941189,0.087535612,0.104092836,0.115227275,0.111581303,0.119572356,0.090873577,0.153264925,0.150807604,0.155546382,0.151699796,0.159391612,0.177834198
430.9953308,0.012395923,0.019639909,0.023034513,0.046090867,0.04900432,0.083704695,0.088502258,0.105246089,0.11645323,0.112850569,0.120965459,0.091925479,0.154883519,0.152569771,0.157268763,0.153638393,0.161398366,0.180180639
429.9932861,0.012598613,0.019820891,0.023378031,0.046658866,0.049551364,0.084664859,0.089298449,0.106247529,0.117679574,0.11394237,0.12218795,0.09285862,0.156196639,0.153976783,0.158973143,0.155231953,0.16327779,0.182242394
428.9910583,0.012816781,0.020104367,0.023768658,0.047245558,0.050066009,0.085456714,0.090128303,0.107259475,0.118823074,0.114997923,0.12340527,0.093762122,0.15796563,0.155655354,0.160713166,0.15698427,0.165165111,0.184330642
427.988678,0.013007824,0.020346848,0.024173127,0.047877118,0.050745036,0.086420923,0.091090374,0.108505748,0.120123819,0.116321117,0.124741182,0.094933197,0.159620479,0.157385573,0.162562415,0.158749908,0.167115256,0.186483696
426.9861755,0.013255554,0.020541288,0.024508346,0.048484184,0.051269341,0.087297767,0.092014708,0.109675169,0.121314503,0.117453709,0.126157224,0.096016437,0.16131343,0.159195408,0.164442197,0.160796613,0.169293895,0.189043179
425.9834595,0.013412776,0.020881779,0.024932202,0.049099986,0.05184824,0.088147931,0.093000814,0.1108464,0.122623399,0.118643217,0.127580077,0.097136505,0.163187772,0.161043659,0.166346952,0.16276224,0.171416298,0.191220343
425.019104,0.01358584,0.02099359,0.025385646,0.049596716,0.052330371,0.088948905,0.093877949,0.11193575,0.12386635,0.119695783,0.128900051,0.098173626,0.164699823,0.162656322,0.168070853,0.164477959,0.173328102,0.193486959
424.0160217,0.013960803,0.021239122,0.025642736,0.050148748,0.052922908,0.08993151,0.094930917,0.113142602,0.125164792,0.120827138,0.130254015,0.09925171,0.166502446,0.164399907,0.169954985,0.166420117,0.175467134,0.195879281
423.0127563,0.014162941,0.021535195,0.026086861,0.050806079,0.053547353,0.090780981,0.095805399,0.114333779,0.126450926,0.122152284,0.131764412,0.100308083,0.168414667,0.166235179,0.172001407,0.16839315,0.177727312,0.198230594
422.0093689,0.014469563,0.021875326,0.02658934,0.051468257,0.054153722,0.091770142,0.096976407,0.115788654,0.127985269,0.123701565,0.133499667,0.10165298,0.170430467,0.1684587,0.174339131,0.170750991,0.180127576,0.200982899
421.0057373,0.014738828,0.022216158,0.026831999,0.052024104,0.054785609,0.092917517,0.098138675,0.117132664,0.129488081,0.124937877,0.135129288,0.102900639,0.17235139,0.170389876,0.176444307,0.172810197,0.182417259,0.203559011
420.0019836,0.015109026,0.022422886,0.027280182,0.052726015,0.055472799,0.093952112,0.099223502,0.118634947,0.131004185,0.12649554,0.136774406,0.104174919,0.174387097,0.172347888,0.178667635,0.175003618,0.184831202,0.206023723
418.9980774,0.015385151,0.022703102,0.02767759,0.053348687,0.056006704,0.095041186,0.100356579,0.119951338,0.132619843,0.127993435,0.138537839,0.105353497,0.176462382,0.174501628,0.180802986,0.177256048,0.187156677,0.208757535
417.993988,0.015713088,0.02301071,0.028108474,0.054049578,0.056754794,0.096061774,0.101588994,0.121443771,0.134181351,0.129481033,0.140283823,0.106818274,0.178494796,0.176636323,0.183041066,0.179345667,0.189498782,0.211121559
416.9897156,0.01585214,0.023105323,0.028335903,0.054500848,0.057200853,0.09704975,0.102603242,0.122658797,0.135684773,0.130964428,0.141891852,0.108123571,0.180646554,0.178675026,0.185006559,0.181499362,0.191758916,0.213556066
415.98526,0.016334469,0.023613354,0.028929135,0.055392977,0.058132939,0.098481245,0.104126848,0.124617904,0.13785772,0.132957757,0.144005299,0.109721057,0.183191061,0.181314498,0.187879533,0.184250832,0.194604769,0.216784194
414.9807129,0.016750069,0.023892261,0.029343316,0.056156449,0.058874503,0.099693269,0.105331332,0.126261935,0.139567688,0.134604469,0.145868689,0.111097001,0.185384914,0.183624297,0.190281123,0.186477929,0.196953356,0.219437823
414.0145874,0.017098157,0.024192886,0.029715203,0.056813061,0.059552938,0.100842133,0.106632628,0.127878368,0.141259566,0.136192262,0.147684723,0.112486146,0.187478468,0.185677916,0.192490518,0.188751891,0.199260294,0.221888334
413.009613,0.017440783,0.024501663,0.030267635,0.057601288,0.060321055,0.102076389,0.107936807,0.129514933,0.142950773,0.137923494,0.149635762,0.113866761,0.189589903,0.187985912,0.194763839,0.190898895,0.201679409,0.224509582
412.0045471,0.017807521,0.024702659,0.030616982,0.058353525,0.061179217,0.103409015,0.109379195,0.131325215,0.144921705,0.139714748,0.151597142,0.115412101,0.192207947,0.190488622,0.197325513,0.193447322,0.204131827,0.227287248
410.9992371,0.01816925,0.025063543,0.031183109,0.059162889,0.061943769,0.10488908,0.110922523,0.133208394,0.146937698,0.141676903,0.153686285,0.117060527,0.194625586,0.193098262,0.199926883,0.196185648,0.206917077,0.230391353
409.9938049,0.018669292,0.025385426,0.031774148,0.06000625,0.062892474,0.106293656,0.11251244,0.134947568,0.148999214,0.143398553,0.155761346,0.118499517,0.196912542,0.195163161,0.202274457,0.198465392,0.209298357,0.233049467
408.9881287,0.018909756,0.025648393,0.032139897,0.060680412,0.063663617,0.10767363,0.113758504,0.136775971,0.150868863,0.145039246,0.157777667,0.119971402,0.199223265,0.19741866,0.204718173,0.200729892,0.211653188,0.235492125
407.9824524,0.019385155,0.025917757,0.032650467,0.061596524,0.064644992,0.109037474,0.115374692,0.138635606,0.152844995,0.146944955,0.159797162,0.121482834,0.201634184,0.199862152,0.207277507,0.203130439,0.214237824,0.238276601
407.0151978,0.019800218,0.026243052,0.033164456,0.062474996,0.065432109,0.110562056,0.117060565,0.140653446,0.155039147,0.148975834,0.161916941,0.123023845,0.204084814,0.202532738,0.209829614,0.205717698,0.216763854,0.241127074
406.0090637,0.020244453,0.026754932,0.033865593,0.063555583,0.066591658,0.112459146,0.11885193,0.142826602,0.157460362,0.151212111,0.164365128,0.124961652,0.207168296,0.205300778,0.212739795,0.20855853,0.219668955,0.244397
405.0028076,0.021012526,0.027413253,0.034726463,0.064819023,0.067917965,0.11441759,0.120974891,0.145306945,0.160025582,0.153473571,0.166954592,0.127062425,0.210148707,0.208217427,0.215864837,0.211433604,0.2227633,0.247593746
403.9963989,0.021284793,0.027583713,0.035212711,0.065511622,0.068656191,0.115674235,0.122352436,0.147137255,0.161850661,0.155160129,0.168819889,0.128234476,0.211966455,0.210194573,0.217815846,0.213568136,0.224808812,0.249991715
402.9897461,0.0216401,0.027910838,0.035709538,0.066605203,0.069696873,0.117216095,0.124094434,0.149179801,0.163982973,0.157062337,0.170983702,0.129821852,0.214344963,0.212773174,0.220208466,0.216026068,0.227330893,0.252723843
401.9830017,0.022220626,0.028346263,0.036438331,0.067804895,0.070911154,0.119213596,0.126036093,0.151482865,0.166413888,0.159424186,0.173406273,0.131653041,0.217385322,0.215532795,0.223324284,0.218794897,0.230220795,0.255842149
401.0148315,0.022868121,0.02889004,0.03728452,0.069039963,0.07221403,0.121243797,0.128037304,0.153941959,0.168992162,0.161797822,0.176054716,0.133650914,0.22038123,0.218566567,0.226319745,0.22183691,0.233195275,0.259243071
400.0077515,0.023325695,0.029200016,0.037933443,0.070134223,0.073252931,0.122990996,0.1300309,0.156248123,0.171353638,0.164051771,0.178306058,0.135340914,0.222996905,0.221103936,0.229002059,0.22436735,0.235907704,0.262243718
399.0005188,0.023901014,0.029828645,0.03861047,0.071315475,0.074464701,0.124930143,0.131984338,0.158435091,0.173691273,0.166105762,0.180616811,0.137033939,0.225522175,0.22368525,0.231679738,0.226960808,0.238590986,0.265164226
397.993103,0.024521958,0.030263085,0.039400838,0.072522305,0.075752713,0.126700372,0.133842737,0.160720855,0.175999507,0.168067008,0.182789922,0.138726801,0.228152096,0.226130247,0.234201372,0.229543328,0.241094738,0.267863542
396.9855652,0.025077309,0.030883165,0.040231183,0.073913492,0.076901622,0.128819481,0.135941282,0.163227081,0.178521931,0.170500875,0.185295939,0.140592724,0.230888128,0.229106858,0.237184256,0.23242946,0.244076565,0.271137089
396.016571,0.02583121,0.031699762,0.041099768,0.075397886,0.078404814,0.131127358,0.1383439,0.165940926,0.18144995,0.173155472,0.188177556,0.142610222,0.234208107,0.232364833,0.240340769,0.235510036,0.247207999,0.274642199
395.0086975,0.026535237,0.032431535,0.042178884,0.076781839,0.079622574,0.133088067,0.140389323,0.16828312,0.184034377,0.17543453,0.190581515,0.144584462,0.237122625,0.235127881,0.243333086,0.23842153,0.250035316,0.277819604
394.0006714,0.027125932,0.032753091,0.042834681,0.078070402,0.080891512,0.135006592,0.142255157,0.17064552,0.186343566,0.177331582,0.192826867,0.146021485,0.23945643,0.237442747,0.245734289,0.240812555,0.252702564,0.280540139
392.9924316,0.027832558,0.033460837,0.043810386,0.079703897,0.082306147,0.137174428,0.144525901,0.173072174,0.188851729,0.1799355,0.195346922,0.148058042,0.242300704,0.240484536,0.248804286,0.243656144,0.255490035,0.283692628
391.9840698,0.02859433,0.034256138,0.044988479,0.081025191,0.083437882,0.139233053,0.146454707,0.175532162,0.191464216,0.182136238,0.19797264,0.15004766,0.245360076,0.243291065,0.251858801,0.246618852,0.258604407,0.286998004
391.0143433,0.029315345,0.034816597,0.045879155,0.082518958,0.084847353,0.14128691,0.148632199,0.178178847,0.194032475,0.184182465,0.200373411,0.151522353,0.247786418,0.24559924,0.254391849,0.249196604,0.261238724,0.290109396
390.0057068,0.030343523,0.035817359,0.04709395,0.084416226,0.086655729,0.14362067,0.151244596,0.181028739,0.197045162,0.18707189,0.20325233,0.153858542,0.251346737,0.249428421,0.257951498,0.252552122,0.264807344,0.293741643
388.9968262,0.031223634,0.036701657,0.048199359,0.086140379,0.087922148,0.146009177,0.153465897,0.183565036,0.199531063,0.18964386,0.206049219,0.155882269,0.254265398,0.252176344,0.260974139,0.255413026,0.267637581,0.297272891
387.987854,0.032073759,0.037510175,0.0493428,0.087736867,0.089283124,0.148105919,0.155642971,0.186046377,0.20225057,0.191901162,0.208450243,0.157727465,0.257033557,0.255003572,0.26378715,0.258378238,0.270654649,0.300508201
387.0175171,0.033255495,0.038499802,0.050593771,0.089549258,0.090785064,0.150421113,0.157885075,0.188835293,0.205048278,0.194320649,0.211115822,0.159540385,0.26009804,0.258122027,0.266923845,0.261372685,0.273641765,0.303966701
386.0082092,0.034399208,0.039599918,0.051951773,0.091610484,0.092504472,0.15301533,0.160412058,0.191789553,0.20802021,0.197191343,0.214142278,0.161868662,0.263485849,0.261459619,0.270387888,0.26478222,0.277094066,0.30763945
384.9987488,0.035681039,0.040722359,0.053325359,0.093698911,0.094226047,0.155476391,0.162928969,0.19483231,0.211208105,0.200071588,0.217171311,0.16387631,0.266795456,0.264891475,0.273788929,0.268084705,0.28042832,0.311371386
383.9891357,0.036830574,0.041886047,0.054793276,0.095734693,0.095640026,0.157850713,0.165295377,0.197560683,0.214009032,0.202522174,0.219863296,0.1659652,0.269968689,0.268065453,0.276920915,0.271043986,0.283519685,0.31491065
383.018219,0.038107574,0.042993784,0.056125429,0.097554557,0.097014338,0.159959465,0.167481259,0.199986741,0.216506466,0.204633534,0.222155586,0.167672366,0.272646993,0.270612389,0.279590905,0.273811966,0.286362857,0.31785652
382.0083008,0.03965519,0.044432238,0.057797268,0.099951819,0.098856427,0.162630126,0.170146868,0.203281343,0.219751865,0.207724646,0.22532846,0.170169264,0.275934309,0.274389744,0.283330828,0.277432919,0.289837956,0.321974486
380.9981995,0.041357223,0.046155032,0.05977267,0.102544993,0.100667156,0.165519103,0.172872171,0.206411645,0.222944573,0.210785627,0.228386313,0.172600687,0.279614508,0.277825207,0.287070125,0.280897111,0.293458253,0.326117158
379.9879761,0.043398574,0.047712576,0.061635721,0.105288737,0.102518536,0.168421954,0.175715074,0.209615096,0.226210043,0.213678286,0.231716096,0.174636975,0.283180744,0.281384498,0.290663123,0.28464371,0.297244251,0.330435187
379.016449,0.045464255,0.04978833,0.063904911,0.108126029,0.104397036,0.171262816,0.178413004,0.212761506,0.229697406,0.217032358,0.235079095,0.177334651,0.286815137,0.285295039,0.294386178,0.28843692,0.300856292,0.334457964
378.0059204,0.047456812,0.05187038,0.065928809,0.110914335,0.106078595,0.174124748,0.181124225,0.215904936,0.23297064,0.219853714,0.23819986,0.179747894,0.290802032,0.288787067,0.29818809,0.291833937,0.304444909,0.338630587
376.9952087,0.049476773,0.053419258,0.06798283,0.113465749,0.107644975,0.176428765,0.183534265,0.218913496,0.235687047,0.221882865,0.241059929,0.181504786,0.293697298,0.291590005,0.301262051,0.294922084,0.307798326,0.341847211
375.9844055,0.052343629,0.055911683,0.070658542,0.116955772,0.110030964,0.179702953,0.18686609,0.222828805,0.239393771,0.225506634,0.244687647,0.184360042,0.298034787,0.296029091,0.305677354,0.299296498,0.312077403,0.346833527
375.0122986,0.055141147,0.058562376,0.073595949,0.120642655,0.112415955,0.183133602,0.190110281,0.226638243,0.243366212,0.229166523,0.248474717,0.187223643,0.302379936,0.299911201,0.310041934,0.303424656,0.316482723,0.351483494
374.0011292,0.057846449,0.060957249,0.076013155,0.12418814,0.114247665,0.185883358,0.193025053,0.230043218,0.246947378,0.232004225,0.251981139,0.189682558,0.306158066,0.303902865,0.313953161,0.30715996,0.320447564,0.355934888
372.9898682,0.060645942,0.063517287,0.078821883,0.127500042,0.116332956,0.189169169,0.196278021,0.233687654,0.250664145,0.23538129,0.25552696,0.192452297,0.310158819,0.307921827,0.317929894,0.31129241,0.324602842,0.36062339
372.0173035,0.063800231,0.066300645,0.081709005,0.131405145,0.11869023,0.19259046,0.199642792,0.237714469,0.254649669,0.239195257,0.259347558,0.195346594,0.314361721,0.31238994,0.322661847,0.315884531,0.329138041,0.365527749
371.0057068,0.06687168,0.068874821,0.08474496,0.135054663,0.121020831,0.196063012,0.202972323,0.241429761,0.258655697,0.242600918,0.263382345,0.198135316,0.318916768,0.316471368,0.327284366,0.32008332,0.33363831,0.370532662
369.9939575,0.070040897,0.0720452,0.087799437,0.13905488,0.123388454,0.199653566,0.206525907,0.245522782,0.263038099,0.246374741,0.267456263,0.201115906,0.323356122,0.321250081,0.331864089,0.325021058,0.338442147,0.375340551
368.9820557,0.07305944,0.074601494,0.090782769,0.142935097,0.125576511,0.203192517,0.209807068,0.249656722,0.2668643,0.249977768,0.271343857,0.204226568,0.327702403,0.325711548,0.336529344,0.329252005,0.342901856,0.380803913
368.0089417,0.075781167,0.077444822,0.093520463,0.146321625,0.127760857,0.20642826,0.213130176,0.253229231,0.270629138,0.253391624,0.27498883,0.206784993,0.331984133,0.329871208,0.340327978,0.333619475,0.347051054,0.385424256
366.9967346,0.078814991,0.079891071,0.096504241,0.150193155,0.130112708,0.2100638,0.216748878,0.257218897,0.27497527,0.257261068,0.278929859,0.209915057,0.336780548,0.334509045,0.345443606,0.338159442,0.35196659,0.391005963
365.9844055,0.081957027,0.082697324,0.099637456,0.154352903,0.132863015,0.214074552,0.22059387,0.261794537,0.279662371,0.261524111,0.2837345,0.2132691,0.341959029,0.339495003,0.350242227,0.343076319,0.357238025,0.39648819
365.0108948,0.085163064,0.085674889,0.102825217,0.158211529,0.135356829,0.218121141,0.224464908,0.266580433,0.28431046,0.265993804,0.288000077,0.216694996,0.347124279,0.344742358,0.355705112,0.348494738,0.362422735,0.402577817
363.9982605,0.088193916,0.088114858,0.105666548,0.161962614,0.137895435,0.222135603,0.228264391,0.271077991,0.28866747,0.27011022,0.292374969,0.220096901,0.352013618,0.349778295,0.36109063,0.35341537,0.367821902,0.408225954
362.9854736,0.091272809,0.091145381,0.108624011,0.165985271,0.140508145,0.226306528,0.232081994,0.275580585,0.293551177,0.274736285,0.297263295,0.223647475,0.357157528,0.355126202,0.366241127,0.358779639,0.372880459,0.413981766
362.0115051,0.094039761,0.093545407,0.111413352,0.16954048,0.142790213,0.229980454,0.235703304,0.279928356,0.297804922,0.277746409,0.301420897,0.226966083,0.361750305,0.359518617,0.371032447,0.363441855,0.378027469,0.419818401
360.9984131,0.097104192,0.096229382,0.114394985,0.173459947,0.145629674,0.234255344,0.239645183,0.284636825,0.302758873,0.282146931,0.305833489,0.230001763,0.367076188,0.364653438,0.376515657,0.368809551,0.3835437,0.425521135
359.9852295,0.100849025,0.0994239,0.118107528,0.178026363,0.148983926,0.239316016,0.244767875,0.290580243,0.308524132,0.287564129,0.311627865,0.234420523,0.373187959,0.370935023,0.38306576,0.375384152,0.390184254,0.433240414
359.0108337,0.104189396,0.102336921,0.121468522,0.18249318,0.152246356,0.244104892,0.249398634,0.296303749,0.314215541,0.292824596,0.317042798,0.238615871,0.379900485,0.377397567,0.389216274,0.381514579,0.396456391,0.440075547
357.997345,0.107501052,0.105458625,0.124939084,0.187032268,0.155062348,0.248963937,0.254184097,0.301498324,0.31934005,0.297828913,0.322228849,0.242512688,0.385803193,0.383414865,0.395517618,0.387777448,0.402279794,0.447072506
356.9836731,0.110996217,0.10815113,0.12780425,0.191173434,0.158133924,0.253667742,0.258591741,0.306692272,0.324416727,0.302336425,0.327601433,0.246194229,0.391730636,0.388861179,0.401290506,0.393537641,0.408435136,0.453499436
356.0088806,0.11448244,0.111367516,0.13163808,0.195966542,0.161533371,0.258704841,0.263475597,0.312832177,0.330367267,0.307955831,0.333038777,0.250874102,0.398354948,0.395735085,0.408220083,0.400088459,0.414773643,0.461192101
354.9949646,0.118299499,0.114383735,0.135506749,0.200838476,0.165204421,0.264156848,0.268913597,0.318869859,0.337081701,0.313563108,0.339450628,0.255227983,0.404861152,0.402954131,0.415467829,0.407288879,0.422040671,0.469363958
353.9808655,0.121478491,0.11753951,0.138667956,0.205232009,0.168158114,0.268952638,0.273549616,0.32457,0.342524946,0.318801999,0.344618231,0.259599119,0.41127637,0.409000546,0.421428323,0.413798004,0.428553939,0.476305634
353.0056763,0.12441691,0.119870715,0.141358227,0.208761603,0.170872971,0.273477942,0.277418733,0.329429835,0.347269952,0.323444814,0.349430502,0.262889296,0.416648239,0.414539576,0.427361548,0.419421315,0.434273958,0.482837975
351.991333,0.127683163,0.122918092,0.145097882,0.213233784,0.174387947,0.27897802,0.282907546,0.335815966,0.353542805,0.329224587,0.355746657,0.267682821,0.42371732,0.421796769,0.434492797,0.426736593,0.441584736,0.49107492
351.0158386,0.130787164,0.125979871,0.148255721,0.217480168,0.177481845,0.284246892,0.287747473,0.341478467,0.359213173,0.334203422,0.361571431,0.27213347,0.430074334,0.428711474,0.441171706,0.433204144,0.448531717,0.498718232
350.0011902,0.134149239,0.12890026,0.151702151,0.221388206,0.180745751,0.289036572,0.292601675,0.347412378,0.365348369,0.339919537,0.367289066,0.27689001,0.436879396,0.435409218,0.448090792,0.440422982,0.455590725,0.506647766
,,,,,,,,,,,,,,,,,,
,,,,,,,,,,,,,,,,,,
,,,,,,,,,,,,,,,,,,
,,,,,,,,,,,,,,,,,,
,,,,,,,,,,,,,,,,,,
,,,,,,,,,,,,,,,,,,
,,,,,,,,,,,,,,,,,,
,,,,,,,,,,,,,,,,,,
,,,,,,,,,,,,,,,,,,
,,,,,,,,,,,,,,,,,,
,,,,,,,,,,,,,,,,,,
,,,,,,,,,,,,,,,,,,
,,,,,,,,,,,,,,,,,,
,,,,,,,,,,,,,,,,,,
,,,,,,,,,,,,,,,,,,
,,,,,,,,,,,,,,,,,,
,,,,,,,,,,,,,,,,,,
,,,,,,,,,,,,,,,,,,
,,,,,,,,,,,,,,,,,,
,,,,,,,,,,,,,,,,,,
,,,,,,,,,,,,,,,,,,
,,,,,,,,,,,,,,,,,,
,,,,,,,,,,,,,,,,,,
,,,,,,,,,,,,,,,,,,
,,,,,,,,,,,,,,,,,,
,,,,,,,,,,,,,,,,,,
,,,,, Old:0.0125,,,,,,,,,,,,,
,,,,, Old:0.0125,,,,,,,,,,,,,
,,,,, Old:0,,,,,,,,,,,,,
,,,,, Old:,,,,,,,,,,,,,
,,,,, Old:  800.0,,,,,,,,,,,,,
,,,,, Old:  200.0,,,,,,,,,,,,,
,,,,, Old:     5.00,,,,,,,,,,,,,
,,,,,,,,,,,,,,,,,,
,,,,,352,,,,,,,,,,,,,
,,,,,,,,,,,,,,,,,,
,,,,,,,,,,,,,,,,,,
,,,,,,,,,,,,,,,,,,
,,,,,,,,,,,,,,,,,,
,,,,,,,,,,,,,,,,,,
,,,,,,,,,,,,,,,,,,
,,,,,,,,,,,,,,,,,,
,,,,,,,,,,,,,,,,,,
,,,,,,,,,,,,,,,,,,
,,,,,,,,,,,,,,,,,,
,,,,,,,,,,,,,,,,,,
,,,,,,,,,,,,,,,,,,
,,,,,,,,,,,,,,,,,,
,,,,,,,,,,,,,,,,,,
,,,,,,,,,,,,,,,,,,
,,,,,,,,,,,,,,,,,,
,,,,,,,,,,,,,,,,,,
,,,,,,,,,,,,,,,,,,
,,,,,,,,,,,,,,,,,,
,,,,,,,,,,,,,,,,,,
,,,,,,,,,,,,,,,,,,
,,,,,,,,,,,,,,,,,,
,,,,,,,,,,,,,,,,,,
,,,,,,,,,,,,,,,,,,
,,,,,,,,,,,,,,,,,,
,,,,,,,,,,,,,,,,,,
,,,,, Old:0.0125,,,,,,,,,,,,,
,,,,, Old:0.0125,,,,,,,,,,,,,
,,,,, Old:0,,,,,,,,,,,,,
,,,,, Old:,,,,,,,,,,,,,
,,,,, Old:  800.0,,,,,,,,,,,,,
,,,,, Old:  200.0,,,,,,,,,,,,,
,,,,, Old:     5.00,,,,,,,,,,,,,
,,,,,,,,,,,,,,,,,,
,,,,,352,,,,,,,,,,,,,
,,,,,,,,,,,,,,,,,,
,,,,,,,,,,,,,,,,,,
,,,,,,,,,,,,,,,,,,
,,,,,,,,,,,,,,,,,,
,,,,,,,,,,,,,,,,,,
,,,,,,,,,,,,,,,,,,
,,,,,,,,,,,,,,,,,,
,,,,,,,,,,,,,,,,,,
,,,,,,,,,,,,,,,,,,
,,,,,,,,,,,,,,,,,,
,,,,,,,,,,,,,,,,,,
,,,,,,,,,,,,,,,,,,
,,,,,,,,,,,,,,,,,,
,,,,,,,,,,,,,,,,,,
,,,,,,,,,,,,,,,,,,
,,,,,,,,,,,,,,,,,,
,,,,,,,,,,,,,,,,,,
,,,,,,,,,,,,,,,,,,
,,,,,,,,,,,,,,,,,,
,,,,,,,,,,,,,,,,,,
,,,,,,,,,,,,,,,,,,
,,,,,,,,,,,,,,,,,,
,,,,,,,,,,,,,,,,,,
,,,,,,,,,,,,,,,,,,
,,,,,,,,,,,,,,,,,,
,,,,,,,,,,,,,,,,,,
,,,,, Old:0.0125,,,,,,,,,,,,,
,,,,, Old:0.0125,,,,,,,,,,,,,
,,,,, Old:0,,,,,,,,,,,,,
,,,,, Old:,,,,,,,,,,,,,
,,,,, Old:  800.0,,,,,,,,,,,,,
,,,,, Old:  200.0,,,,,,,,,,,,,
,,,,, Old:     5.00,,,,,,,,,,,,,
,,,,,,,,,,,,,,,,,,
,,,,,350,,,,,,,,,,,,,
,,,,,,,,,,,,,,,,,,
,,,,,,,,,,,,,,,,,,
,,,,,,,,,,,,,,,,,,
,,,,,,,,,,,,,,,,,,
,,,,,,,,,,,,,,,,,,
,,,,,,,,,,,,,,,,,,
,,,,,,,,,,,,,,,,,,
,,,,,,,,,,,,,,,,,,
,,,,,,,,,,,,,,,,,,
,,,,,,,,,,,,,,,,,,
,,,,,,,,,,,,,,,,,,
,,,,,,,,,,,,,,,,,,
,,,,,,,,,,,,,,,,,,
,,,,,,,,,,,,,,,,,,
,,,,,,,,,,,,,,,,,,
,,,,,,,,,,,,,,,,,,
,,,,,,,,,,,,,,,,,,
,,,,,,,,,,,,,,,,,,
,,,,,,,,,,,,,,,,,,
,,,,,,,,,,,,,,,,,,
,,,,,,,,,,,,,,,,,,
,,,,,,,,,,,,,,,,,,
,,,,,,,,,,,,,,,,,,
,,,,,,,,,,,,,,,,,,
,,,,,,,,,,,,,,,,,,
,,,,,,,,,,,,,,,,,,
,,,,, Old:0.0125,,,,,,,,,,,,,
,,,,, Old:0.0125,,,,,,,,,,,,,
,,,,, Old:0,,,,,,,,,,,,,
,,,,, Old:,,,,,,,,,,,,,
,,,,, Old:  800.0,,,,,,,,,,,,,
,,,,, Old:  200.0,,,,,,,,,,,,,
,,,,, Old:     5.00,,,,,,,,,,,,,
,,,,,,,,,,,,,,,,,,
,,,,,350,,,,,,,,,,,,,
,,,,,,,,,,,,,,,,,,
,,,,,,,,,,,,,,,,,,
,,,,,,,,,,,,,,,,,,
,,,,,,,,,,,,,,,,,,
,,,,,,,,,,,,,,,,,,
,,,,,,,,,,,,,,,,,,
,,,,,,,,,,,,,,,,,,
,,,,,,,,,,,,,,,,,,
,,,,,,,,,,,,,,,,,,
,,,,,,,,,,,,,,,,,,
,,,,,,,,,,,,,,,,,,
,,,,,,,,,,,,,,,,,,
,,,,,,,,,,,,,,,,,,
,,,,,,,,,,,,,,,,,,
,,,,,,,,,,,,,,,,,,
,,,,,,,,,,,,,,,,,,
,,,,,,,,,,,,,,,,,,
,,,,,,,,,,,,,,,,,,
,,,,,,,,,,,,,,,,,,
,,,,,,,,,,,,,,,,,,
,,,,,,,,,,,,,,,,,,
,,,,,,,,,,,,,,,,,,
,,,,,,,,,,,,,,,,,,
,,,,,,,,,,,,,,,,,,
,,,,,,,,,,,,,,,,,,
,,,,,,,,,,,,,,,,,,
,,,,, Old:0.0125,,,,,,,,,,,,,
,,,,, Old:0.0125,,,,,,,,,,,,,
,,,,, Old:0,,,,,,,,,,,,,
,,,,, Old:,,,,,,,,,,,,,
,,,,, Old:  800.0,,,,,,,,,,,,,
,,,,, Old:  200.0,,,,,,,,,,,,,
,,,,, Old:     5.00,,,,,,,,,,,,,
,,,,,,,,,,,,,,,,,,
,,,,,352,,,,,,,,,,,,,
,,,,,,,,,,,,,,,,,,
,,,,,,,,,,,,,,,,,,
,,,,,,,,,,,,,,,,,,
,,,,,,,,,,,,,,,,,,
,,,,,,,,,,,,,,,,,,
,,,,,,,,,,,,,,,,,,
,,,,,,,,,,,,,,,,,,
,,,,,,,,,,,,,,,,,,
,,,,,,,,,,,,,,,,,,
,,,,,,,,,,,,,,,,,,
,,,,,,,,,,,,,,,,,,
,,,,,,,,,,,,,,,,,,
,,,,,,,,,,,,,,,,,,
,,,,,,,,,,,,,,,,,,
,,,,,,,,,,,,,,,,,,
,,,,,,,,,,,,,,,,,,
,,,,,,,,,,,,,,,,,,
,,,,,,,,,,,,,,,,,,
,,,,,,,,,,,,,,,,,,
,,,,,,,,,,,,,,,,,,
,,,,,,,,,,,,,,,,,,
,,,,,,,,,,,,,,,,,,
,,,,,,,,,,,,,,,,,,
,,,,,,,,,,,,,,,,,,
,,,,,,,,,,,,,,,,,,
,,,,,,,,,,,,,,,,,,
,,,,, Old:0.0125,,,,,,,,,,,,,
,,,,, Old:0.0125,,,,,,,,,,,,,
,,,,, Old:0,,,,,,,,,,,,,
,,,,, Old:,,,,,,,,,,,,,
,,,,, Old:  800.0,,,,,,,,,,,,,
,,,,, Old:  200.0,,,,,,,,,,,,,
,,,,, Old:     5.00,,,,,,,,,,,,,
,,,,,,,,,,,,,,,,,,
,,,,,355,,,,,,,,,,,,,
,,,,,,,,,,,,,,,,,,
,,,,,,,,,,,,,,,,,,
,,,,,,,,,,,,,,,,,,
,,,,,,,,,,,,,,,,,,
,,,,,,,,,,,,,,,,,,
,,,,,,,,,,,,,,,,,,
,,,,,,,,,,,,,,,,,,
,,,,,,,,,,,,,,,,,,
,,,,,,,,,,,,,,,,,,
,,,,,,,,,,,,,,,,,,
,,,,,,,,,,,,,,,,,,
,,,,,,,,,,,,,,,,,,
,,,,,,,,,,,,,,,,,,
,,,,,,,,,,,,,,,,,,
,,,,,,,,,,,,,,,,,,
,,,,,,,,,,,,,,,,,,
,,,,,,,,,,,,,,,,,,
,,,,,,,,,,,,,,,,,,
,,,,,,,,,,,,,,,,,,
,,,,,,,,,,,,,,,,,,
,,,,,,,,,,,,,,,,,,
,,,,,,,,,,,,,,,,,,
,,,,,,,,,,,,,,,,,,
,,,,,,,,,,,,,,,,,,
,,,,,,,,,,,,,,,,,,
,,,,,,,,,,,,,,,,,,
,,,,, Old:0.0125,,,,,,,,,,,,,
,,,,, Old:0.0125,,,,,,,,,,,,,
,,,,, Old:0,,,,,,,,,,,,,
,,,,, Old:,,,,,,,,,,,,,
,,,,, Old:  800.0,,,,,,,,,,,,,
,,,,, Old:  200.0,,,,,,,,,,,,,
,,,,, Old:     5.00,,,,,,,,,,,,,
,,,,,,,,,,,,,,,,,,
,,,,,353,,,,,,,,,,,,,
,,,,,,,,,,,,,,,,,,
,,,,,,,,,,,,,,,,,,
,,,,,,,,,,,,,,,,,,
,,,,,,,,,,,,,,,,,,
,,,,,,,,,,,,,,,,,,
,,,,,,,,,,,,,,,,,,
,,,,,,,,,,,,,,,,,,
,,,,,,,,,,,,,,,,,,
,,,,,,,,,,,,,,,,,,
,,,,,,,,,,,,,,,,,,
,,,,,,,,,,,,,,,,,,
,,,,,,,,,,,,,,,,,,
,,,,,,,,,,,,,,,,,,
,,,,,,,,,,,,,,,,,,
,,,,,,,,,,,,,,,,,,
,,,,,,,,,,,,,,,,,,
,,,,,,,,,,,,,,,,,,
,,,,,,,,,,,,,,,,,,
,,,,,,,,,,,,,,,,,,
,,,,,,,,,,,,,,,,,,
,,,,,,,,,,,,,,,,,,
,,,,,,,,,,,,,,,,,,
,,,,,,,,,,,,,,,,,,
,,,,,,,,,,,,,,,,,,
,,,,,,,,,,,,,,,,,,
,,,,,,,,,,,,,,,,,,
,,,,, Old:0.0125,,,,,,,,,,,,,
,,,,, Old:0.0125,,,,,,,,,,,,,
,,,,, Old:0,,,,,,,,,,,,,
,,,,, Old:,,,,,,,,,,,,,
,,,,, Old:  800.0,,,,,,,,,,,,,
,,,,, Old:  200.0,,,,,,,,,,,,,
,,,,, Old:     5.00,,,,,,,,,,,,,
,,,,,,,,,,,,,,,,,,
,,,,,350,,,,,,,,,,,,,
,,,,,,,,,,,,,,,,,,
,,,,,,,,,,,,,,,,,,
,,,,,,,,,,,,,,,,,,
,,,,,,,,,,,,,,,,,,
,,,,,,,,,,,,,,,,,,
,,,,,,,,,,,,,,,,,,
,,,,,,,,,,,,,,,,,,
,,,,,,,,,,,,,,,,,,
,,,,,,,,,,,,,,,,,,
,,,,,,,,,,,,,,,,,,
,,,,,,,,,,,,,,,,,,
,,,,,,,,,,,,,,,,,,
,,,,,,,,,,,,,,,,,,
,,,,,,,,,,,,,,,,,,
,,,,,,,,,,,,,,,,,,
,,,,,,,,,,,,,,,,,,
,,,,,,,,,,,,,,,,,,
,,,,,,,,,,,,,,,,,,
,,,,,,,,,,,,,,,,,,
,,,,,,,,,,,,,,,,,,
,,,,,,,,,,,,,,,,,,
,,,,,,,,,,,,,,,,,,
,,,,,,,,,,,,,,,,,,
,,,,,,,,,,,,,,,,,,
,,,,,,,,,,,,,,,,,,
,,,,,,,,,,,,,,,,,,
,,,,, Old:0.0125,,,,,,,,,,,,,
,,,,, Old:0.0125,,,,,,,,,,,,,
,,,,, Old:0,,,,,,,,,,,,,
,,,,, Old:,,,,,,,,,,,,,
,,,,, Old:  800.0,,,,,,,,,,,,,
,,,,, Old:  200.0,,,,,,,,,,,,,
,,,,, Old:     5.00,,,,,,,,,,,,,
,,,,,,,,,,,,,,,,,,
,,,,,353,,,,,,,,,,,,,
,,,,,,,,,,,,,,,,,,
,,,,,,,,,,,,,,,,,,
,,,,,,,,,,,,,,,,,,
,,,,,,,,,,,,,,,,,,
,,,,,,,,,,,,,,,,,,
,,,,,,,,,,,,,,,,,,
,,,,,,,,,,,,,,,,,,
,,,,,,,,,,,,,,,,,,
,,,,,,,,,,,,,,,,,,
,,,,,,,,,,,,,,,,,,
,,,,,,,,,,,,,,,,,,
,,,,,,,,,,,,,,,,,,
,,,,,,,,,,,,,,,,,,
,,,,,,,,,,,,,,,,,,
,,,,,,,,,,,,,,,,,,
,,,,,,,,,,,,,,,,,,
,,,,,,,,,,,,,,,,,,
,,,,,,,,,,,,,,,,,,
,,,,,,,,,,,,,,,,,,
,,,,,,,,,,,,,,,,,,
,,,,,,,,,,,,,,,,,,
,,,,,,,,,,,,,,,,,,
,,,,,,,,,,,,,,,,,,
,,,,,,,,,,,,,,,,,,
,,,,,,,,,,,,,,,,,,
,,,,,,,,,,,,,,,,,,
,,,,, Old:0.0125,,,,,,,,,,,,,
,,,,, Old:0.0125,,,,,,,,,,,,,
,,,,, Old:0,,,,,,,,,,,,,
,,,,, Old:,,,,,,,,,,,,,
,,,,, Old:  800.0,,,,,,,,,,,,,
,,,,, Old:  200.0,,,,,,,,,,,,,
,,,,, Old:     5.00,,,,,,,,,,,,,
,,,,,,,,,,,,,,,,,,
,,,,,350,,,,,,,,,,,,,
,,,,,,,,,,,,,,,,,,
,,,,,,,,,,,,,,,,,,
,,,,,,,,,,,,,,,,,,
,,,,,,,,,,,,,,,,,,
,,,,,,,,,,,,,,,,,,
,,,,,,,,,,,,,,,,,,
,,,,,,,,,,,,,,,,,,
,,,,,,,,,,,,,,,,,,
,,,,,,,,,,,,,,,,,,
,,,,,,,,,,,,,,,,,,
,,,,,,,,,,,,,,,,,,
,,,,,,,,,,,,,,,,,,
,,,,,,,,,,,,,,,,,,
,,,,,,,,,,,,,,,,,,
,,,,,,,,,,,,,,,,,,
,,,,,,,,,,,,,,,,,,
,,,,,,,,,,,,,,,,,,
,,,,,,,,,,,,,,,,,,
,,,,,,,,,,,,,,,,,,
,,,,,,,,,,,,,,,,,,
,,,,,,,,,,,,,,,,,,
,,,,,,,,,,,,,,,,,,
,,,,,,,,,,,,,,,,,,
,,,,,,,,,,,,,,,,,,
,,,,,,,,,,,,,,,,,,
,,,,,,,,,,,,,,,,,,
,,,,, Old:0.0125,,,,,,,,,,,,,
,,,,, Old:0.0125,,,,,,,,,,,,,
,,,,, Old:0,,,,,,,,,,,,,
,,,,, Old:,,,,,,,,,,,,,
,,,,, Old:  800.0,,,,,,,,,,,,,
,,,,, Old:  200.0,,,,,,,,,,,,,
,,,,, Old:     5.00,,,,,,,,,,,,,
,,,,,,,,,,,,,,,,,,
,,,,,350,,,,,,,,,,,,,
,,,,,,,,,,,,,,,,,,
,,,,,,,,,,,,,,,,,,
,,,,,,,,,,,,,,,,,,
,,,,,,,,,,,,,,,,,,
,,,,,,,,,,,,,,,,,,
,,,,,,,,,,,,,,,,,,
,,,,,,,,,,,,,,,,,,
,,,,,,,,,,,,,,,,,,
,,,,,,,,,,,,,,,,,,
,,,,,,,,,,,,,,,,,,
,,,,,,,,,,,,,,,,,,
,,,,,,,,,,,,,,,,,,
,,,,,,,,,,,,,,,,,,
,,,,,,,,,,,,,,,,,,
,,,,,,,,,,,,,,,,,,
,,,,,,,,,,,,,,,,,,
,,,,,,,,,,,,,,,,,,
,,,,,,,,,,,,,,,,,,
,,,,,,,,,,,,,,,,,,
,,,,,,,,,,,,,,,,,,
,,,,,,,,,,,,,,,,,,
,,,,,,,,,,,,,,,,,,
,,,,,,,,,,,,,,,,,,
,,,,,,,,,,,,,,,,,,
,,,,,,,,,,,,,,,,,,
,,,,,,,,,,,,,,,,,,
,,,,, Old:0.0125,,,,,,,,,,,,,
,,,,, Old:0.0125,,,,,,,,,,,,,
,,,,, Old:0,,,,,,,,,,,,,
,,,,, Old:,,,,,,,,,,,,,
,,,,, Old:  800.0,,,,,,,,,,,,,
,,,,, Old:  200.0,,,,,,,,,,,,,
,,,,, Old:     5.00,,,,,,,,,,,,,
,,,,,,,,,,,,,,,,,,
,,,,,350,,,,,,,,,,,,,
,,,,,,,,,,,,,,,,,,
,,,,,,,,,,,,,,,,,,
,,,,,,,,,,,,,,,,,,
,,,,,,,,,,,,,,,,,,
,,,,,,,,,,,,,,,,,,
,,,,,,,,,,,,,,,,,,
,,,,,,,,,,,,,,,,,,
,,,,,,,,,,,,,,,,,,
,,,,,,,,,,,,,,,,,,
,,,,,,,,,,,,,,,,,,
,,,,,,,,,,,,,,,,,,
,,,,,,,,,,,,,,,,,,
,,,,,,,,,,,,,,,,,,
,,,,,,,,,,,,,,,,,,
,,,,,,,,,,,,,,,,,,
,,,,,,,,,,,,,,,,,,
,,,,,,,,,,,,,,,,,,
,,,,,,,,,,,,,,,,,,
,,,,,,,,,,,,,,,,,,
,,,,,,,,,,,,,,,,,,
,,,,,,,,,,,,,,,,,,
,,,,,,,,,,,,,,,,,,
,,,,,,,,,,,,,,,,,,
,,,,,,,,,,,,,,,,,,
,,,,,,,,,,,,,,,,,,
,,,,,,,,,,,,,,,,,,
,,,,, Old:0.0125,,,,,,,,,,,,,
,,,,, Old:0.0125,,,,,,,,,,,,,
,,,,, Old:0,,,,,,,,,,,,,
,,,,, Old:,,,,,,,,,,,,,
,,,,, Old:  800.0,,,,,,,,,,,,,
,,,,, Old:  200.0,,,,,,,,,,,,,
,,,,, Old:     5.00,,,,,,,,,,,,,
,,,,,,,,,,,,,,,,,,
,,,,,355,,,,,,,,,,,,,
,,,,,,,,,,,,,,,,,,
,,,,,,,,,,,,,,,,,,
,,,,,,,,,,,,,,,,,,
,,,,,,,,,,,,,,,,,,
,,,,,,,,,,,,,,,,,,
,,,,,,,,,,,,,,,,,,
,,,,,,,,,,,,,,,,,,
,,,,,,,,,,,,,,,,,,
,,,,,,,,,,,,,,,,,,
,,,,,,,,,,,,,,,,,,
,,,,,,,,,,,,,,,,,,
,,,,,,,,,,,,,,,,,,
,,,,,,,,,,,,,,,,,,
,,,,,,,,,,,,,,,,,,
,,,,,,,,,,,,,,,,,,
,,,,,,,,,,,,,,,,,,
,,,,,,,,,,,,,,,,,,
,,,,,,,,,,,,,,,,,,
,,,,,,,,,,,,,,,,,,
,,,,,,,,,,,,,,,,,,
,,,,,,,,,,,,,,,,,,
,,,,,,,,,,,,,,,,,,
,,,,,,,,,,,,,,,,,,
,,,,,,,,,,,,,,,,,,
,,,,,,,,,,,,,,,,,,
,,,,,,,,,,,,,,,,,,
,,,,, Old:0.0125,,,,,,,,,,,,,
,,,,, Old:0.0125,,,,,,,,,,,,,
,,,,, Old:0,,,,,,,,,,,,,
,,,,, Old:,,,,,,,,,,,,,
,,,,, Old:  800.0,,,,,,,,,,,,,
,,,,, Old:  200.0,,,,,,,,,,,,,
,,,,, Old:     5.00,,,,,,,,,,,,,
,,,,,,,,,,,,,,,,,,
,,,,,350,,,,,,,,,,,,,
,,,,,,,,,,,,,,,,,,
,,,,,,,,,,,,,,,,,,
,,,,,,,,,,,,,,,,,,
,,,,,,,,,,,,,,,,,,
,,,,,,,,,,,,,,,,,,
,,,,,,,,,,,,,,,,,,
,,,,,,,,,,,,,,,,,,
,,,,,,,,,,,,,,,,,,
,,,,,,,,,,,,,,,,,,
,,,,,,,,,,,,,,,,,,
,,,,,,,,,,,,,,,,,,
,,,,,,,,,,,,,,,,,,
,,,,,,,,,,,,,,,,,,
,,,,,,,,,,,,,,,,,,
,,,,,,,,,,,,,,,,,,
,,,,,,,,,,,,,,,,,,
,,,,,,,,,,,,,,,,,,
,,,,,,,,,,,,,,,,,,
,,,,,,,,,,,,,,,,,,
,,,,,,,,,,,,,,,,,,
,,,,,,,,,,,,,,,,,,
,,,,,,,,,,,,,,,,,,
,,,,,,,,,,,,,,,,,,
,,,,,,,,,,,,,,,,,,
,,,,,,,,,,,,,,,,,,
,,,,,,,,,,,,,,,,,,
,,,,, Old:0.0125,,,,,,,,,,,,,
,,,,, Old:0.0125,,,,,,,,,,,,,
,,,,, Old:0,,,,,,,,,,,,,
,,,,, Old:,,,,,,,,,,,,,
,,,,, Old:  800.0,,,,,,,,,,,,,
,,,,, Old:  200.0,,,,,,,,,,,,,
,,,,, Old:     5.00,,,,,,,,,,,,,
,,,,,,,,,,,,,,,,,,
,,,,,350,,,,,,,,,,,,,
,,,,,,,,,,,,,,,,,,
,,,,,,,,,,,,,,,,,,
,,,,,,,,,,,,,,,,,,
,,,,,,,,,,,,,,,,,,
,,,,,,,,,,,,,,,,,,
,,,,,,,,,,,,,,,,,,
,,,,,,,,,,,,,,,,,,
,,,,,,,,,,,,,,,,,,
,,,,,,,,,,,,,,,,,,
,,,,,,,,,,,,,,,,,,
,,,,,,,,,,,,,,,,,,
,,,,,,,,,,,,,,,,,,
,,,,,,,,,,,,,,,,,,
,,,,,,,,,,,,,,,,,,
,,,,,,,,,,,,,,,,,,
,,,,,,,,,,,,,,,,,,
,,,,,,,,,,,,,,,,,,
,,,,,,,,,,,,,,,,,,
,,,,,,,,,,,,,,,,,,
,,,,,,,,,,,,,,,,,,
,,,,,,,,,,,,,,,,,,
,,,,,,,,,,,,,,,,,,
,,,,,,,,,,,,,,,,,,
,,,,,,,,,,,,,,,,,,
,,,,,,,,,,,,,,,,,,
,,,,,,,,,,,,,,,,,,
,,,,, Old:0.0125,,,,,,,,,,,,,
,,,,, Old:0.0125,,,,,,,,,,,,,
,,,,, Old:0,,,,,,,,,,,,,
,,,,, Old:,,,,,,,,,,,,,
,,,,, Old:  800.0,,,,,,,,,,,,,
,,,,, Old:  200.0,,,,,,,,,,,,,
,,,,, Old:     5.00,,,,,,,,,,,,,
,,,,,,,,,,,,,,,,,,
,,,,,351,,,,,,,,,,,,,
,,,,,,,,,,,,,,,,,,
,,,,,,,,,,,,,,,,,,
,,,,,,,,,,,,,,,,,,
,,,,,,,,,,,,,,,,,,
,,,,,,,,,,,,,,,,,,
,,,,,,,,,,,,,,,,,,
,,,,,,,,,,,,,,,,,,
,,,,,,,,,,,,,,,,,,
,,,,,,,,,,,,,,,,,,
,,,,,,,,,,,,,,,,,,
,,,,,,,,,,,,,,,,,,
,,,,,,,,,,,,,,,,,,
,,,,,,,,,,,,,,,,,,
,,,,,,,,,,,,,,,,,,
,,,,,,,,,,,,,,,,,,
,,,,,,,,,,,,,,,,,,
,,,,,,,,,,,,,,,,,,
,,,,,,,,,,,,,,,,,,
,,,,,,,,,,,,,,,,,,
,,,,,,,,,,,,,,,,,,
,,,,,,,,,,,,,,,,,,
,,,,,,,,,,,,,,,,,,
,,,,,,,,,,,,,,,,,,
,,,,,,,,,,,,,,,,,,
,,,,,,,,,,,,,,,,,,
,,,,,,,,,,,,,,,,,,
,,,,, Old:0.0125,,,,,,,,,,,,,
,,,,, Old:0.0125,,,,,,,,,,,,,
,,,,, Old:0,,,,,,,,,,,,,
,,,,, Old:,,,,,,,,,,,,,
,,,,, Old:  800.0,,,,,,,,,,,,,
,,,,, Old:  200.0,,,,,,,,,,,,,
,,,,, Old:     5.00,,,,,,,,,,,,,
,,,,,,,,,,,,,,,,,,
,,,,,350,,,,,,,,,,,,,
,,,,,,,,,,,,,,,,,,
,,,,,,,,,,,,,,,,,,
,,,,,,,,,,,,,,,,,,
,,,,,,,,,,,,,,,,,,
,,,,,,,,,,,,,,,,,,
,,,,,,,,,,,,,,,,,,
,,,,,,,,,,,,,,,,,,
,,,,,,,,,,,,,,,,,,
,,,,,,,,,,,,,,,,,,
,,,,,,,,,,,,,,,,,,
,,,,,,,,,,,,,,,,,,
,,,,,,,,,,,,,,,,,,
,,,,,,,,,,,,,,,,,,
,,,,,,,,,,,,,,,,,,
,,,,,,,,,,,,,,,,,,
,,,,,,,,,,,,,,,,,,
,,,,,,,,,,,,,,,,,,
,,,,,,,,,,,,,,,,,,
,,,,,,,,,,,,,,,,,,
,,,,,,,,,,,,,,,,,,
,,,,,,,,,,,,,,,,,,
,,,,,,,,,,,,,,,,,,
,,,,,,,,,,,,,,,,,,
,,,,,,,,,,,,,,,,,,
,,,,,,,,,,,,,,,,,,
,,,,,,,,,,,,,,,,,,
,,,,, Old:0.0125,,,,,,,,,,,,,
,,,,, Old:0.0125,,,,,,,,,,,,,
,,,,, Old:0,,,,,,,,,,,,,
,,,,, Old:,,,,,,,,,,,,,
,,,,, Old:  800.0,,,,,,,,,,,,,
,,,,, Old:  200.0,,,,,,,,,,,,,
,,,,, Old:     5.00,,,,,,,,,,,,,
,,,,,,,,,,,,,,,,,,
,,,,,354,,,,,,,,,,,,,
