Wavelength (nm),30 s,60 s,90 s ,120 s ,150 s,180 s ,210 s ,240 s,270 s ,300 s,330 s,360 s,390 s,420 s,450 s,480 s,570 s,600 s
450,31.78025436,31.32736969,31.41827583,21.95926094,29.66052437,30.60303307,25.77819061,23.63617897,24.10420799,21.79255676,24.35816002,23.35793114,23.62167168,25.02793312,22.06347847,27.18630409,23.01025963,25.39131165
451.0599976,34.19438171,33.59605026,33.77064133,23.35544395,32.35356903,33.07561493,27.86591721,25.10608864,25.99524117,23.55360413,26.52112579,25.09370804,25.18455887,26.95625877,23.86725807,29.31233597,24.15558815,27.08636475
451.9599915,36.36392975,35.88626862,36.29413223,24.75775719,34.19306183,35.20553207,29.12268829,26.37370872,27.49133682,25.06137466,27.45330238,26.34736061,26.91782188,28.2542038,25.199543,30.96463203,25.40057755,28.3248806
453.0299988,38.73483276,38.84631729,39.32253647,26.86080551,37.23273087,37.64521027,31.49395752,28.51020622,29.24133682,26.78092384,29.61975288,28.36310387,28.63836098,30.23552895,26.71560097,32.68043137,27.38431549,30.18279839
453.9299927,41.0340004,41.36211777,41.69220352,28.21442986,39.09978867,39.90140152,32.6896286,30.20339394,30.94113159,28.21289635,30.87354279,29.66971397,30.49089432,32.15125656,28.03050613,34.48553848,28.12057877,31.78045082
455,43.48800278,44.5646286,45.11091232,30.92876816,41.9363327,42.40515518,35.62031937,31.99507713,32.90147781,30.04935646,33.2732048,31.92974663,31.8278141,33.46923065,30.02626228,36.81774902,30.29536057,33.92028427
456.0599976,46.15219879,47.81326675,48.65557098,32.56982803,44.68661499,45.41916656,37.87500381,33.89587402,35.06484604,31.85496902,35.11618042,33.78242111,34.05721664,35.01901245,32.3113327,38.85041809,31.99764633,35.90422058
456.9599915,48.06253433,50.24757385,51.27264023,34.31278229,47.10069275,46.67273331,40.02488327,35.87919617,36.87623978,33.05633926,37.1916008,35.17696762,35.41098404,36.70324326,33.23963547,40.59541321,33.25012207,37.0370369
458.0299988,50.36744308,53.75939178,54.2071228,36.6042099,49.68380737,49.96140289,42.22881317,37.39441299,38.94554138,35.46343231,38.92610168,37.14466476,36.89829636,38.73054504,34.80846405,42.56324768,34.45295715,39.07695389
458.9299927,51.88666534,55.7172699,57.43146133,38.95473862,52.07880402,52.14975739,44.48503494,39.52423096,40.63463211,36.45132065,40.66387939,38.57461548,38.47816086,40.70917892,36.3587532,44.55746078,36.26905823,40.30362701
460,54.73405075,58.96836472,60.87343597,41.06805801,55.78691101,55.439888,46.93664551,41.75886917,42.71705627,38.65324783,43.20899582,41.04560089,40.92842102,42.65006256,38.19507599,46.4993515,37.66492844,43.16527939
461.0599976,56.37770844,62.35167694,64.75611877,43.62295914,58.48438263,58.61039734,49.50130463,43.42075348,45.54717255,40.72120667,45.5800209,42.89048004,43.01418304,44.05646133,40.33585358,48.46390152,39.65065384,44.84536362
461.9599915,57.70280457,64.39283752,67.49269867,45.38576126,61.15811157,60.85718536,50.97517014,45.74020004,47.29389572,41.84762955,46.7338028,44.36583328,44.1506424,45.41854095,41.3011055,50.62294769,41.18553543,45.90980911
463.0299988,59.20780945,67.41138458,70.80718231,47.76192856,64.16766357,63.83868408,54.23941422,47.38064575,49.01919174,43.76142883,48.72862244,46.4578476,45.97862625,47.56482315,42.90119934,52.60660172,43.04454041,48.01622391
463.9299927,60.27286148,68.92572784,73.48872375,49.85614395,66.44496918,65.86183929,56.55189896,49.23914719,51.33302307,45.84124756,50.88061523,48.01628494,47.55787659,49.40894699,44.54184723,54.27893829,43.77392197,49.54272461
465,61.65147018,72.06852722,77.30474854,52.2661438,69.92132568,68.99137878,59.17310715,51.28287125,53.79372787,47.62688446,52.63939667,49.51872253,49.16925812,51.2460556,46.27688217,56.59418106,45.23411942,51.13069534
466.0599976,62.55234146,74.8252182,81.69217682,54.85592651,73.72449493,72.70244598,61.63737488,54.30340576,55.7947464,49.13014221,55.06362534,51.74024582,51.31446838,53.25625992,48.16141891,58.03549957,47.44992065,52.80249023
466.9599915,63.37016678,76.23782349,84.24664307,56.69721222,76.21232605,75.74172974,64.62499237,56.05252838,57.62342072,51.20382309,56.59889603,53.67739487,52.86191559,55.02658844,49.86613464,60.06816483,48.53654861,54.94950485
468.0299988,64.63776398,78.40180206,87.6871109,59.48545456,79.50769043,78.21202087,67.58863068,58.33227158,60.22650146,52.86338806,58.81462479,56.01363373,55.42421341,56.08751297,50.76514435,61.58389282,49.94800186,56.63478851
468.9299927,65.1399765,80.28675079,91.30208588,62.35519028,83.34220123,80.49353027,69.87397766,61.13287735,62.56000137,54.54574966,60.37152481,57.63098145,56.82521439,57.65223694,52.95884705,63.61898041,51.170578,57.74784851
470,65.65656281,83.03775024,94.92758179,64.95832825,86.9400177,84.86038971,72.94421387,62.98533249,65.39356232,56.64087296,63.23339844,59.39528656,58.28385925,59.48125458,54.54721451,66.34031677,53.0969162,59.43341827
471.0599976,65.75336456,85.29983521,99.89862823,68.31414795,91.1448288,89.04175568,76.80323792,66.38768005,67.56749725,59.48782349,65.84593964,61.71201324,60.31017685,61.58658218,56.80018616,68.3871994,54.8155632,61.46873474
471.9599915,67.78884125,87.00501251,102.6848602,70.84536743,95.27297211,92.71098328,79.26855469,69.17389679,70.57397461,61.18634033,67.7983551,64.16060638,62.53881836,63.829319,58.16989517,69.89614868,56.20455551,62.91270447
473.0299988,68.52383423,89.37335205,105.5130844,73.95928955,98.71055603,97.81967926,82.87545013,71.62704468,73.97032166,64.23645782,70.72193146,66.45927429,64.3286972,65.58876038,59.8808136,71.58625031,57.9274025,65.52338409
473.9299927,68.17738342,91.04454041,109.2239761,76.51437378,102.8085175,100.6767731,85.93838501,73.98890686,75.9154129,65.66359711,72.8418045,68.18997192,66.3215332,66.51903534,61.80217743,74.28565979,59.26940155,66.33386993
475,68.73187256,93.08087921,114.4298096,79.55846405,108.6625137,105.5210037,90.77304077,77.76361084,78.35203552,68.87100983,75.55529785,70.1608429,68.03971863,68.83358765,63.25079346,75.97085571,60.89157104,68.18094635
476.0599976,69.58007813,94.56478119,117.2701492,83.30404663,113.6945953,110.8380966,94.91720581,80.49185181,81.9771347,72.17735291,78.11369324,73.28414154,70.0717392,70.36665344,66.47428894,79.32567596,62.43835068,70.26242065
476.9599915,69.43071747,96.78488159,120.3280258,86.1147995,117.3809433,115.4850235,99.29582214,83.85548401,86.11394501,73.89029694,81.28244781,75.53549194,72.40724182,72.38330078,67.83956909,81.02722931,64.49851227,72.21650696
478.0299988,70.12993622,97.34265137,123.9975815,88.78391266,122.9700928,119.3872604,103.1578598,87.92617035,89.11764526,77.24001312,83.96142578,78.01770782,74.26613617,74.41225433,69.70349121,83.54031372,65.92060852,74.06322479
478.9299927,69.79534912,97.96316528,127.8346329,92.04625702,126.7888565,124.816246,108.1730804,91.11005402,93.01906586,79.66498566,87.19618988,80.03668976,76.72616577,75.80276489,71.39862823,84.89242554,67.25128937,75.64338684
480,70.48658752,100.1263199,131.699585,96.00772095,133.5096436,130.8537903,112.9700546,96.44324493,96.79898834,82.9644165,90.98011017,83.48969269,79.53567505,77.35603333,74.68286896,86.97563171,69.2513504,77.91930389
481.0400085,70.35616302,101.8334427,134.5048218,98.41275024,138.6595459,136.3614044,118.0016327,99.96952057,100.8927383,86.93708038,94.56917572,85.81050873,81.02632904,79.35420227,75.32582092,89.86348724,70.04022217,79.55010986
481.9400024,70.8208847,102.7821426,137.9101868,101.5718307,143.2990723,143.2722473,123.7424774,104.7425232,105.1472549,91.48097992,97.71976471,88.9145813,84.09429169,82.10939026,79.0320816,91.61342621,72.47468567,81.89574432
482.980011,71.28572845,102.8730621,141.1045685,105.3074646,149.0702667,149.2281952,128.376297,108.9726486,109.5013351,94.4852066,101.6167908,93.23570251,86.58699036,84.10696411,80.43418121,94.69783783,74.55079651,83.48951721
484.019989,71.15549469,103.0276871,144.6057739,108.3629913,153.3150787,155.299881,134.6038971,114.1916809,114.9320755,99.16159058,107.0116272,96.5723114,88.85483551,86.29883575,82.43714142,98.20698547,75.60444641,86.17282867
485.0700073,71.70477295,103.8855896,146.2880096,111.2849731,160.0045929,162.0687256,141.4044342,119.9486771,120.535614,103.6891403,110.2084656,100.0812073,92.06165314,88.25518799,84.3666153,100.420723,78.26129913,88.01676178
485.9700012,70.93713379,103.5776291,147.4399567,113.3723145,164.8935547,167.2654724,146.4002533,124.1926193,125.272316,106.6797409,114.7542725,102.7790985,94.15176392,89.55311584,86.48789215,103.0879517,80.67049408,90.42150879
487.0100098,70.76354218,104.1428223,150.4191895,115.1932526,168.9164581,173.6218567,152.8622284,129.5453033,130.7592468,112.0684509,119.8779144,106.4647598,97.32273102,92.11539459,88.30269623,104.9575958,80.70611572,92.83301544
488.0499878,71.54794312,104.1652908,152.0454559,117.5777435,174.6209106,178.1620636,158.1109314,135.8231659,135.9887085,116.6172104,124.2969437,111.7265015,100.716507,93.48271179,90.6120224,108.3544006,84.22068024,94.91944122
488.9500122,71.34390259,104.1963425,153.0620575,119.089653,178.3696289,184.8563843,162.9339752,140.374939,142.5475922,121.8935013,129.0032959,115.2526932,102.7023849,95.50495148,92.19719696,109.7325134,86.38269043,97.34187317
490,70.92190552,103.9627533,153.6987457,121.1550903,181.5114136,190.6994781,169.7206726,146.5965881,147.8027802,126.3765106,134.7017365,120.1136017,106.8351746,97.73955536,94.7339859,112.3444901,88.19552612,99.67835236
491.0599976,71.27895355,103.6129227,153.8798981,122.478035,186.0553284,196.9279175,174.7120209,150.0189362,153.989624,131.7849731,139.9737549,124.6003113,109.7937012,98.8385849,96.57802582,115.3960114,89.99279022,102.0656052
491.9599915,70.74160004,102.8375397,154.3652649,123.1571884,188.0169373,200.7015076,180.0240173,155.2583923,157.3213196,136.1664276,144.1833038,128.5285492,111.7050095,99.73397827,98.24417877,116.8055954,91.93836975,104.468544
493.0299988,70.24617004,101.6446686,154.790802,124.4277115,190.8083801,205.7084808,184.6338959,160.29245,163.2483826,140.3982086,150.1997223,131.9706879,114.3319244,101.3771973,99.42565918,119.9108887,94.21398926,106.5512161
493.9299927,70.92569733,101.1623077,154.4647369,124.5496674,194.0500031,210.0129395,190.1911621,164.134964,169.0658875,144.6460114,154.8726654,135.6889496,117.6454773,103.1100693,100.2840347,121.3363419,95.33886719,108.3596878
495,71.13696289,101.3308029,154.0519867,125.2607117,195.4379883,214.003006,194.9694061,170.3088837,175.5677948,150.0606689,161.3536835,142.5659637,120.300148,103.9724274,101.7740707,122.1941833,98.34267426,111.3468246
496.0599976,70.31450653,100.6926956,153.2123108,124.5054855,196.7755737,217.8197327,199.4036102,174.9341278,181.33638,155.592926,167.0260773,146.3835297,122.4195709,106.036026,102.8045959,125.4712067,100.7759628,113.5756989
496.9599915,70.26811218,99.47732544,153.0297089,125.1451492,198.6019592,219.6588593,203.0058441,177.3086243,184.6713562,158.7919006,169.7726288,151.0962219,126.2901611,107.0803223,103.5229492,127.311409,101.9344177,114.3560791
498.0299988,71.10610199,99.65183258,152.5840759,125.1611862,199.2254639,222.1920013,205.7138519,181.2696838,189.4709167,164.5895844,176.0248871,155.8707581,127.7723465,107.9934006,104.0153885,128.4000549,103.7859573,117.496254
498.9299927,70.52944183,98.16178131,150.8674316,123.9414291,198.9225311,223.3744965,208.4054871,183.5793152,192.4756622,167.8831329,181.9671173,158.65242,129.8162079,107.7850418,105.3209534,128.2630768,104.9165039,118.4895325
500,70.91305542,97.3878479,148.7101135,123.5055618,198.4242249,224.7245941,211.5612335,188.1642761,197.4345398,172.2308044,185.3696899,163.1477814,131.8005981,109.5679245,105.7235107,129.8675079,106.1563492,120.2918854
501.0400085,70.69021606,96.18160248,147.3074036,122.5691376,198.4957275,224.9450836,213.6821594,190.8119659,200.2678528,175.1243134,190.2448425,168.1774902,134.6555328,108.8106155,105.8479919,132.5460205,108.0427399,122.2242203
501.9400024,70.36341095,96.13363647,146.6552124,120.4190445,195.9889832,223.9236755,213.3776855,192.8174591,202.9942474,178.7623749,195.0029907,170.8440857,136.4772949,110.8596802,106.0797119,132.0263519,108.7870026,123.6895752
502.980011,71.14637756,94.69334412,145.9464111,121.3054504,195.1786957,224.4325867,214.4360657,192.0489197,206.5328979,179.3574219,198.2584991,173.557663,137.584137,111.1541061,105.9358063,133.3822784,109.5425415,125.3643646
504.019989,71.00979614,95.60404205,144.5136719,118.7548218,193.577652,222.6582336,215.3769531,194.7999878,207.4762573,183.0786285,201.2991333,176.444046,139.6526947,111.5962601,105.5272903,133.7011261,110.3166656,125.5394516
505.0700073,71.08027649,94.38270569,142.5449677,116.4332657,190.3873444,221.6732025,212.6903992,195.0347443,209.9289856,184.2698822,203.5396271,179.432785,140.7851715,110.693222,104.7690048,133.2335815,110.8893814,127.4228363
505.9700012,70.97383881,93.05854034,140.4449768,115.6322021,187.0992737,218.5987854,210.6454926,195.7629089,209.8000793,185.1901855,204.5860901,181.8142548,140.7621155,111.4063492,105.1127167,133.8353271,111.3032379,127.5279083
507.0100098,71.11921692,92.39801788,138.7650299,114.016304,184.6950073,218.6116486,209.5939026,194.5107727,208.3934479,184.3718719,204.9688873,181.971817,142.3124237,110.9928513,104.589798,133.6056824,111.1165314,127.8712158
508.0499878,71.47851563,92.51015472,137.7592926,112.287384,182.5005188,213.647171,207.73349,192.7025909,208.5175934,185.3468323,208.2590179,182.2698975,141.7482147,110.390419,103.8244934,133.059494,111.198349,127.8040848
508.9500122,70.51927185,91.34194946,136.2513275,110.7869339,179.2402954,212.0162506,205.9117584,191.5411835,207.1733093,184.0712738,205.9403687,183.4755859,141.27005,110.2725067,103.1864548,132.8771362,110.1508865,126.9656601
510,70.55171204,90.34803772,133.9085083,108.9233475,175.3904114,206.4812622,202.7919769,188.8059692,205.2054901,182.5977173,204.8770905,184.0706482,139.8160095,109.5606384,100.8536072,132.0924835,110.3538284,127.6479492
511.0400085,70.32836914,90.49640656,132.3815155,106.7222595,172.8038177,204.005249,198.8282471,186.6488953,203.757019,180.7859344,204.3008881,182.8760071,139.5841827,109.5925446,99.92458344,129.7581177,109.7665329,126.585228
511.9400024,70.17661285,89.83188629,131.4576874,105.6210861,169.0207672,198.8948059,195.7606049,184.2976227,200.704895,179.8522644,205.0924072,181.2087708,138.3950653,108.3216782,98.51731873,129.4977264,108.7984161,125.7758026
512.9799805,69.63575745,88.63510895,129.2514801,102.8461304,165.863327,195.2400665,191.5025482,180.0850067,197.084198,176.0673065,200.6444092,179.1210175,136.9538116,107.4055023,97.28512573,128.288147,107.728569,124.5791092
514.0200195,69.36859894,87.81152344,128.0745239,100.4634857,161.7904968,190.672287,188.3091125,176.5206604,193.3494568,172.6100464,198.5641632,176.8952179,134.6942596,106.4541855,96.54711914,126.9143066,106.2180634,123.5873184
515.0700073,68.58781433,87.4353714,126.7087173,99.75634766,158.1232758,186.5671539,182.6334686,172.4647369,188.8277435,169.434433,194.1256409,173.7485962,133.8232117,104.9821396,95.00010681,125.2275085,104.5769806,121.9360733
515.9699707,68.98731232,87.11003113,125.5268326,98.29561615,155.5381622,182.7197113,179.6790161,170.1637878,186.868988,166.5558472,191.5371246,171.5640564,132.5379791,104.1397247,93.6796875,124.405014,102.812561,120.8053665
517.0100098,68.07744598,87.1431427,124.5264816,96.40081787,153.2077026,178.8256531,176.3638306,165.3848877,182.6007996,163.1482849,187.5248871,168.5224915,130.3199615,103.2415466,92.43989563,123.7087326,102.9343185,119.6531143
518.0499878,68.2427063,86.61982727,123.0295486,95.74099731,150.3534698,173.6912842,171.3452606,162.0940552,178.2492523,158.7757721,184.6068573,165.1283264,128.4112244,102.095459,91.32293701,121.2346039,101.6308441,117.6140366
518.9500122,67.96073151,86.03023529,122.2160645,93.13002777,147.5256653,170.843338,169.3983002,158.2399292,173.6450195,156.033844,181.1760406,162.8416748,126.871315,100.971344,90.49188232,119.961586,99.88368988,116.6255035
520,68.36192322,85.02331543,121.3848877,92.29568481,145.5398865,166.7931061,164.9243011,155.0483704,170.6437073,151.0229187,176.3718414,158.9199371,124.7757111,100.1083527,89.15099335,119.5768509,98.43596649,115.251915
521.039978,67.57540131,84.3836441,120.4259415,91.27326202,142.2046356,163.8652039,161.3466949,151.3403015,166.5650024,147.5013733,172.0962982,156.0309601,122.0240555,99.08776093,87.94226074,116.6278839,97.37434387,113.2564163
521.9400024,67.32171631,84.32816315,120.1920471,90.84989166,140.2354431,162.2428741,158.2189026,148.6162567,164.285141,144.8282928,168.7066803,152.423996,121.1410599,98.92159271,86.27201843,116.2421417,97.35997772,112.913887
522.9799805,66.27736664,83.69367981,118.6750031,89.17704773,138.7245483,157.0262909,153.8668671,145.3764496,159.6935272,140.7119751,163.0769806,148.466095,119.1293335,97.70227051,85.07543182,114.7817001,94.63607788,110.4335938
524.0200195,66.41375732,83.82726288,117.3616867,87.1712265,135.6773224,154.4179688,151.4152374,141.8634949,155.301712,136.7715302,159.3707733,144.4845428,114.9858627,96.128479,84.35590363,112.8485947,93.99497986,109.4851303
525.0700073,66.12992859,82.81794739,115.5789795,86.90991974,133.7272949,151.781723,148.338623,138.9816437,151.4264679,133.8381348,155.7350616,141.6740417,113.9669418,95.08375549,83.68389893,112.1644745,92.52667236,107.0860748
525.9699707,65.60115814,82.10940552,114.9996414,86.62940216,131.7651672,149.8907623,145.6489258,135.6523895,148.4185333,129.2306213,151.579361,138.2913208,112.4565277,94.3012619,81.41410828,111.1966476,91.1008606,106.837532
527.0100098,65.12516785,81.48958588,114.3854294,84.77885437,129.5749207,146.6809998,142.8794098,131.9576569,145.176712,126.8558807,149.297699,134.3872375,110.1228104,92.15650177,81.03098297,109.184288,88.8050766,105.075737
528.0499878,64.75326538,80.50496674,113.1413345,84.3117218,127.7732086,144.1159821,140.3308411,129.6230774,141.3005219,123.4456253,145.0843506,130.8209076,106.9979706,91.00239563,79.35128784,107.8604202,88.00585175,102.4868393
528.9500122,63.92516327,80.47055817,112.4390945,83.23796082,127.0724564,141.5162354,137.3631287,127.8354263,138.3001556,121.2009048,141.7048035,127.9715576,105.7894287,90.35729218,79.70462799,106.8754196,86.90825653,101.7502594
530,63.44166565,79.90814209,111.8179626,81.74143982,124.9506454,138.5912323,135.2821503,125.3094559,135.9883728,118.2885132,137.8375092,124.898613,104.6851349,89.44367981,78.39057159,105.296402,85.69852448,100.711792
531.0200195,63.20569611,79.62059784,111.8137054,80.828125,122.6068039,136.9603577,131.7031097,122.719635,132.5804749,115.6509018,134.4187469,122.5640488,103.211235,88.76328278,76.88546753,104.6337128,84.89174652,99.32981873
532.0499878,63.05058289,78.65904236,109.8109741,80.35968018,121.2772903,134.8587341,130.804657,120.2774124,129.1785736,113.1404419,131.3491364,120.1576462,101.4427109,87.75286865,76.59054565,102.782753,83.11991882,96.80043793
532.9400024,62.40539932,78.6583252,108.6545029,79.89517975,120.7254333,132.4451904,129.1386566,117.0567322,127.8127747,109.5885239,129.2881622,117.7845612,99.56038666,86.69889069,75.83873749,101.4416504,81.90267944,96.36629486
533.9699707,61.18758392,78.06063843,108.4299393,78.58275604,118.2246933,131.1167755,126.5119781,115.7423096,125.6899414,108.3528137,124.7956619,114.6201172,98.23416138,85.37545013,74.48516083,100.2089462,81.48007202,95.05736542
535,61.10695648,76.64542389,107.5040359,78.07529449,117.4907684,128.9505615,124.8725052,114.182518,123.5873642,105.5632858,122.4465866,112.6133957,96.98486328,84.17060089,73.96062469,99.80496979,79.58435822,93.55725098
536.0200195,60.30438614,76.56356812,106.0275421,77.17420959,115.9495316,126.6083298,122.8793716,112.6432114,121.1490402,103.8007278,120.5601501,110.1212463,95.2206955,83.27550507,72.62028503,98.32161713,79.35951233,93.061203
537.0499878,60.4487915,75.8658905,105.3436813,76.71209717,114.0567551,124.7702942,121.1689835,110.1130066,118.219017,100.8221054,117.425705,107.9358139,92.85636902,82.63084412,70.97519684,96.54079437,77.48925018,91.844841
