Wavelength (nm),30 s,60 s,90 s,120 s,150 s,180 s,210 s,240 s,270 s,300 s,330 s,360 s,390 s,420 s,450 s,480 s,570 s,600 s
300,16.22346878,10.33264923,4.85817385,10.1892786,2.057026386,3.380457401,2.494882822,3.708713293,2.473417521,5.152236938,2.39969039,3.320683002,3.653530836,4.61255455,4.120040417,2.93735671,4.761822701,2.231713057
300.929993,18.63080788,12.52966309,5.68555212,11.91889477,2.293362617,4.158526421,3.048578501,4.440916538,3.138124466,6.277000904,2.950241804,4.005556583,4.212388039,5.467192173,4.833171844,3.423632383,5.609304428,2.795676231
302.029999,22.25685883,14.78185272,6.74339628,13.93077755,2.859392405,4.860948086,3.867980957,5.189869404,3.647459507,7.221885681,3.872990847,4.745065212,5.042016983,6.464151382,5.852018356,4.045199871,6.475829124,3.289675236
302.959991,24.21866608,16.3703804,8.53790951,15.89873981,3.232257605,5.67432642,4.477725029,6.097494602,4.234485626,8.592108727,4.568210602,5.44959116,5.825242519,7.28711462,7.105804443,4.616834641,7.285634041,3.717711926
304.059998,28.22164917,19.47904396,9.61743736,17.98557091,3.921481371,6.216846466,5.126576424,6.81941843,4.921555519,9.731566429,5.172608852,6.503575325,6.909413815,8.610947609,8.694761276,5.366949558,8.293933868,4.424829006
305,31.48906326,22.14471054,11.4570255,20.22393608,4.717915535,7.922902584,5.84031105,7.969614029,5.743525505,11.11225605,5.839929581,7.077879906,8.154813766,9.643891335,10.02737904,6.187430382,9.50661087,5.197553158
305.929993,35.88196182,25.1926384,12.9703217,23.45588112,6.10320425,8.79907608,7.082831383,9.403460503,6.765176773,12.66388416,7.003226757,8.206599236,9.398961067,11.22279263,11.7587986,6.962261677,11.00201035,6.030462742
307.029999,39.17172623,28.6606369,14.8831587,25.84567261,7.345644474,10.07861519,8.158840179,10.51056194,8.028587341,14.74378395,7.839249611,9.514511108,10.67025375,12.91401482,13.71529961,8.16776371,12.55630493,6.498735905
307.959991,42.67894363,31.13237572,16.8632526,28.22390938,8.384409904,11.07226086,9.362376213,11.63020325,9.079714775,16.08461189,8.953948975,10.52861309,11.86900234,14.02654266,15.29747009,8.850750923,12.9763155,7.478455067
309.059998,45.72307968,34.22333527,19.5024967,31.02522469,9.523913383,12.81020546,10.52931404,13.16376877,10.15301514,17.14795494,9.879143715,11.47809029,12.82781887,15.56779575,16.98618126,10.17542744,14.56476116,8.133237839
310,48.62805176,36.30435181,20.8330994,32.49575424,10.86696911,13.72450638,11.4861908,13.59479141,10.74470806,18.7974472,10.75847244,12.64854145,13.97725296,16.38205147,18.25719833,10.44098568,15.91875362,8.889427185
311.070007,52.67573166,38.96530533,22.1745281,35.69017029,12.40488338,15.25942039,12.59941006,15.00765705,12.23805523,20.36666679,12.03376007,13.94294548,15.56779671,18.44986153,20.84405327,12.02415752,17.27134514,9.671373367
312,54.55571365,42.53287506,24.5940876,37.9448204,14.0039978,16.56863022,14.00284863,16.49514771,13.08043003,22.06572723,12.87676239,14.73691463,16.64134598,19.44482422,22.98033524,12.87480545,18.56092644,10.8795023
313.070007,58.30626297,45.36559296,27.2512722,41.01883316,16.40140915,18.07143211,14.9014864,17.53422546,14.92446518,23.60590935,14.03788662,16.14485741,18.37661171,21.18427467,25.0477066,14.01997375,19.60808182,11.79460335
314,62.31521606,48.15288925,28.8048,43.13402176,18.33901024,19.50716019,17.18552208,19.21408463,16.03170776,25.04008484,15.808074,17.63500214,20.08402443,22.79894829,27.30628204,15.11312675,20.69099426,12.54687691
315.070007,64.37203217,51.31113052,31.8104782,46.70053482,21.00405121,21.31788063,18.81580544,20.86741447,17.6409626,27.14690399,16.80323982,18.16179085,21.63438797,24.69598389,29.82395935,16.47973442,22.54605484,13.74291515
316,69.48693085,54.2973175,34.692421,49.09292603,23.93343163,23.23342514,20.57250023,22.25894547,19.2490139,30.19611168,18.46335411,20.34824944,23.16412735,26.81383514,32.07683563,17.44615936,24.00956917,14.765481
317.070007,73.66641235,58.63756943,38.2806854,52.57204819,26.91303253,26.2502079,22.70901108,24.27838326,21.33056831,31.92369652,20.20602798,22.22083282,25.64841843,28.96990776,35.62134552,19.74186134,25.54051781,16.4054184
318,77.47289276,61.93590164,40.7671165,55.41601563,30.11302185,27.50687981,24.48757744,25.47434998,22.34035683,33.15011978,21.63813591,23.62482452,27.32921219,31.18792534,38.2605896,20.39581299,28.49657059,17.25686264
319.070007,81.54341888,66.72664642,44.0470352,60.11380768,32.99248123,30.01410675,26.27049828,27.71173286,24.72356224,36.88944626,23.50617599,25.65408134,30.85742378,33.53559113,40.6915741,21.79478455,29.45062447,18.97848511
320,86.42037964,70.70571136,47.0804138,62.79656219,36.88013077,32.62543488,29.15724182,29.94754601,26.31138229,38.9499588,25.04306221,27.32855415,31.25156403,35.0908699,45.08935928,23.62913704,31.77820587,20.22646904
320.929993,89.04419708,74.65843201,51.6845856,66.69758606,40.37251663,35.95370865,31.75455666,32.41744614,29.03943825,41.37106323,27.91890526,29.76259804,34.01699448,37.64096832,48.60326767,25.23836327,33.80946732,22.10280609
322.029999,93.54057312,79.41893005,54.9145851,71.53495026,45.22558212,37.96261978,33.57140732,34.23406219,31.36402702,44.65651703,29.10717964,31.4704628,37.04697418,40.0991745,52.15374756,27.58765793,36.09341812,23.90078735
322.959991,96.73487091,82.16364288,57.960144,72.54871368,48.79407501,40.75151825,35.74189377,36.79885101,33.07378387,46.88022995,31.60687256,34.11272812,38.50370026,42.13508987,55.00300598,29.17805099,38.67671585,25.53191376
324.059998,99.95259857,85.04582214,60.0250854,74.9760437,51.31932449,42.35301208,38.05894852,38.12377167,35.25886917,49.40194702,32.87255859,35.40446091,40.14026642,44.14793396,56.66975784,31.04031754,40.18288422,26.27401733
325,101.8627777,87.90470886,62.112442,76.62989807,53.57414627,44.11323929,40.07662201,39.4160614,36.90918732,49.18941116,34.47966003,36.41860962,41.8928833,45.74385834,58.56184387,32.04763031,40.92396545,28.08009148
325.929993,103.1342773,89.21785736,64.8364868,77.9803772,56.1821785,45.19344711,40.32123184,41.22061157,38.18492889,51.10707092,35.30459595,38.13790894,43.2382164,46.47709274,60.29842377,33.42819977,42.05527878,28.94314003
327.029999,105.7033234,91.11843872,67.6903152,80.94639587,58.82352829,47.59497452,42.59466553,43.1056366,39.80084229,54.53231049,37.15843201,40.18087769,45.30600357,49.21209335,63.0358696,34.61815643,44.19775009,30.12482643
327.959991,107.5657196,93.00352478,70.5968246,82.82275391,60.84416199,49.9677124,45.2532692,45.11391449,42.03094482,56.20783234,39.3109169,41.83423233,47.80627441,51.40383911,65.80983734,35.89692688,46.56053925,30.96326447
329.059998,112.4103012,96.76867676,73.7162781,86.38393402,63.72322083,52.38468933,48.00152206,46.88247681,44.60261154,58.03342438,41.67311096,43.50885773,49.82170105,53.36585236,67.44346619,38.68712997,48.34040833,33.4329071
330,114.7921371,100.4841995,77.5623245,89.23238373,68.35147095,55.22429657,50.56101227,49.57090378,46.45163727,60.18811035,43.59091949,45.46240997,52.30002594,55.01651764,70.66403198,40.54683685,49.39118958,34.90987015
331.070007,116.7977219,105.626091,81.4355698,93.55806732,71.37140656,59.6664505,53.26090622,53.23003006,49.40206528,64.0557785,46.69561768,48.38962173,55.39033508,58.79693985,73.86728668,42.81601715,51.7816124,37.28576279
332,119.8750076,107.445961,84.01474,95.9504776,73.65375519,61.59024048,55.66419601,55.42543411,52.15692139,66.80875397,49.00838852,50.26996994,57.61330795,61.5921936,76.93746185,45.18438339,54.20123291,39.29228973
333.070007,124.3937302,111.0452881,87.4569397,98.27783203,78.08730316,63.9107666,58.67106628,57.72029877,54.60270309,68.94554138,50.92998886,53.46654129,59.89009094,63.77142715,78.55486298,47.9101944,57.05746841,40.47509766
334,124.272644,113.1171036,89.5318375,99.54915619,81.6003418,67.04798889,60.5073204,59.95685196,57.13128662,70.54342651,52.41706467,54.43014908,62.09737015,65.40745544,80.86051178,48.64757538,57.75841904,42.64509583
335.070007,125.7334824,117.267746,93.2783279,102.194313,83.06359863,68.22267914,63.21658325,62.07590866,58.5234642,71.72218323,55.66534805,56.83156586,63.85614777,66.28966522,83.15483856,51.2256012,60.12133408,43.71832275
336,127.065094,118.6493301,96.4011765,104.3047943,85.98213959,70.54743958,65.52550507,63.70454407,60.67150879,75.85945129,57.5775528,58.81582642,66.58859253,69.63131714,84.74239349,52.64629745,61.87843704,45.70745468
337.070007,130.0210571,120.3331146,99.3888931,107.5020905,88.725914,73.73965454,67.73215485,67.33221436,64.73280334,77.04237366,59.53639603,61.36834335,68.1754303,72.19611359,86.67417908,54.64236832,64.60936737,47.81429672
338,131.7026215,122.2976303,102.945076,109.5867386,91.92817688,76.75004578,71.94779968,69.54116821,66.43528748,80.71711731,62.46751404,64.09549713,71.57259369,74.97420502,90.27463531,57.95101166,66.35617065,50.09476089
339.070007,134.4575806,125.5746765,104.971375,111.9507217,94.88819885,81.07878113,75.17137909,72.26068115,69.1231308,80.86347961,65.3868866,66.61717224,73.65505219,76.08986664,93.47205353,59.18163681,67.7666626,52.7411499
340,135.5452728,126.0701981,108.437126,113.1856689,98.2795639,82.50585938,76.68132019,74.62936401,71.58763885,85.82474518,67.71110535,68.9757309,75.49521637,79.79433441,94.32269287,61.03812408,70.78734589,54.12981033
341.070007,136.4783173,130.7091675,113.0644,116.3480835,100.9178848,86.10604095,80.29379272,77.38968658,73.98564148,88.30330658,69.6880722,72.48064423,78.20898438,82.69680786,96.17177582,65.25119019,72.94623566,55.66996765
342,139.8966217,133.9493408,116.053192,119.2956772,106.1108017,89.90251923,82.0280304,80.62985992,77.87657928,91.1397934,73.55679321,74.7504425,81.9858551,85.51719666,98.11665344,67.6386795,74.619133,57.75691605
343.070007,142.322998,135.790451,118.955101,123.4190521,108.0876617,93.63633728,86.87704468,83.74120331,79.62026978,94.29354858,74.88617706,76.90228271,83.80098724,87.68264008,101.4359436,69.51232147,77.21802521,61.65533829
344,142.6277924,138.160614,124.25428,123.2672958,109.735405,95.9884491,88.77893829,85.46336365,82.30214691,95.35164642,76.26818085,79.74760437,87.09863281,89.70529938,103.0194855,70.70380402,78.8666153,61.92863083
345.070007,143.2195587,138.0208282,124.306259,125.8767548,111.5388565,97.68920135,90.30227661,86.74923706,84.71652222,97.66469574,79.52038574,79.99768066,88.06448364,93.27214813,104.3313141,74.40193176,80.58651733,63.71849823
346,145.7129364,141.4595032,125.887794,126.7626419,113.9290619,98.78607941,93.37762451,87.85085297,86.35575867,98.54798126,81.32262421,82.67768097,90.68612671,93.38774872,107.7674484,76.00195313,81.60353851,66.13846588
347.070007,145.689682,142.8378448,129.177795,126.9501877,117.689064,101.0543213,95.51890564,91.36769867,88.86916351,101.4767761,83.98487854,85.41311646,93.60638428,94.67564392,107.9172287,77.33757019,83.70841217,67.68732452
348,145.3261261,145.1544495,132.040726,130.3770752,120.1864166,104.5167694,97.85326385,93.78739929,91.78525543,103.9570084,85.55117798,87.68558502,94.46164703,96.85608673,109.1569061,79.10327911,85.57371521,69.25284576
349.070007,147.5771179,146.3597412,135.698364,132.2647705,123.6397324,108.3212204,100.5014954,96.65242767,94.22473907,107.0473862,88.32300568,91.61619568,97.26856995,100.0109863,111.2398453,82.26504517,88.03186798,71.96987152
350,150.5354614,148.641922,138.683853,134.7657471,125.8610764,111.4857483,103.4710236,98.67241669,96.83847046,108.9098358,91.81498718,91.16403198,100.3187637,102.2691879,113.7031097,84.10586548,89.35688782,74.15274048
351.070007,152.3895874,150.4793091,142.073212,136.4863739,130.0959015,114.1833038,107.3873901,101.7579346,100.0889893,111.5765762,95.49848175,95.8490448,103.6761703,106.1742325,115.8424988,86.68379974,93.10655975,75.76555634
352,153.9544983,152.4244843,144.351257,139.669632,131.9925385,116.818367,109.7300339,103.9970398,102.5042419,114.9486694,96.66526031,97.14711761,105.4772186,107.1093903,118.234436,88.89829254,93.81106567,78.77366638
353.070007,155.974762,154.017395,148.071335,141.8069458,136.0328217,119.9563522,113.8212433,107.8209839,104.683342,117.9169235,100.4657288,101.2839737,108.1979294,110.0364227,120.2119446,92.84163666,96.03757477,81.27198792
354,157.0075989,157.1365967,150.18927,143.6876373,136.8780975,123.1629105,116.3235092,109.6209259,107.5044098,118.3636551,102.0753479,102.0152359,111.7719498,113.5370636,121.665329,95.6699295,99.24511719,83.05656433
355.070007,157.4601898,158.8538513,155.555817,145.4338531,140.9896545,124.4967499,118.0737,112.9354324,111.3441696,121.7741241,105.4339752,104.8125458,112.8308105,114.9434586,124.4060822,98.47914886,100.9873123,84.92906189
356,157.5665283,159.7401123,156.299377,145.2592773,142.1112518,127.5737915,120.0795059,114.7920303,112.2630463,122.757782,107.1752167,106.7441788,114.3135986,116.23909,125.5512695,98.5511322,102.3112106,85.68123627
357.070007,157.1652069,159.8887329,156.897675,145.4693146,143.0817261,128.8994904,122.5457001,115.9067001,112.7988739,124.7736053,107.4603119,108.5096207,115.2262573,117.5222015,125.1864853,100.3195496,102.4040375,88.20719147
358,158.3415985,160.4363251,159.261551,146.5133667,145.6274872,132.3881683,124.7350311,116.6494751,114.8165054,125.1628571,110.595787,109.5336151,117.8041,119.7275391,126.8699799,102.6175995,104.0812912,89.57672882
359.070007,158.3421936,162.4186707,161.761459,147.6808014,147.5981598,134.00383,127.1485672,118.7233505,117.1628342,126.8837433,113.4452362,112.3872223,119.8687592,121.0131989,129.158844,105.242981,107.1688309,90.95285034
360,158.4456635,161.9765167,163.080292,148.3863068,148.6720276,136.8842926,128.1547699,120.9477005,119.1625977,128.0649109,114.0020218,113.4378281,120.9590225,121.2951813,130.0180206,106.1310654,107.3871689,92.25991058
361.070007,157.1223602,160.4994812,163.427475,146.5398712,149.3834991,137.2169952,129.7537079,121.0410843,120.2548904,128.6653442,115.6485901,113.2155991,120.4831085,122.0303192,128.9831848,106.0974731,108.0620346,94.3139267
362,153.9633179,158.605484,160.976639,145.710495,148.9867249,136.4365692,127.7156754,121.6105423,121.2833176,126.3081741,115.6263046,114.2303619,121.8102341,121.9571991,128.926239,106.9535828,108.3487015,92.88217163
363.070007,151.2809296,157.484314,161.129776,144.4337311,147.692276,135.7713013,128.9282837,120.225914,117.6159668,125.095665,114.0975876,112.6866302,120.7708969,121.094223,127.3172073,106.1694641,106.3188324,94.73042297
364,149.6807556,155.6881561,159.505997,142.6503601,146.1495056,136.3105469,126.5842285,120.406601,120.2709579,126.8106079,115.3767929,114.5237656,119.8823929,122.0480576,126.388298,105.9749985,106.6377487,95.02200317
365.070007,146.3343353,154.9667511,159.621872,142.6856689,147.2579498,136.7832794,127.9731827,121.3937073,119.8459473,127.4533386,114.4206314,114.3013,121.1143341,121.0112152,125.7203674,107.4999466,107.3299255,95.46779633
366,148.7441559,154.8812866,159.773911,141.2971191,148.5931702,135.9559021,129.140686,123.2342529,121.1578903,127.3833389,116.8393936,115.9673233,120.1476593,122.354538,125.4852676,109.0609207,107.8130798,96.70861053
367.070007,147.1427307,153.2768707,160.57785,142.2863922,149.3504181,137.8480988,130.8713989,122.5501022,123.1075134,127.2865982,118.6275177,117.7150116,122.0394516,122.8563004,125.7808533,110.9608383,108.9982834,97.64264679
368,144.8948364,152.2941437,159.972412,141.1710968,150.1041718,140.4366913,132.2020111,123.9944763,123.6569977,127.4397659,118.2123413,117.2423172,121.8002625,122.737381,127.2230453,111.649086,109.5179749,98.94859314
369.070007,145.104599,150.4611206,159.700165,138.4579163,149.4192963,142.5083008,131.4811859,124.616478,124.1810837,127.3699875,119.1524353,118.4297485,123.1403503,123.2589111,127.8007507,112.626915,109.4260864,99.98352051
370,143.9398041,151.6743164,161.179535,139.6024628,151.2212677,143.4133606,133.9883728,125.334053,124.5235443,128.2662659,120.7041321,120.0314789,124.6261215,124.7749252,126.7419434,113.6682434,109.3760834,101.2375259
371.070007,141.5677795,149.3781586,160.02301,137.626297,149.7175903,142.952713,134.1563873,126.0791855,125.6476212,128.064743,120.3731232,119.1025009,124.3994675,124.8575287,127.3866272,114.2557373,111.5,101.7180099
372,141.498703,147.8524933,160.19841,137.0726776,150.0498199,143.5901489,134.4462891,125.0202789,125.5586929,127.8779221,120.729744,118.7754364,124.1848907,124.7739105,126.2949829,115.307991,111.4106445,100.9247589
373.070007,138.2229004,147.4765167,159.774002,136.5555267,149.6512909,142.6020813,132.8545837,125.3817978,127.4004288,128.474762,121.4562607,119.9106216,124.3546982,125.7826843,124.6081848,115.6848297,110.1044464,102.0263672
374,137.1423645,146.326355,158.623291,134.7952118,148.2509003,145.0275726,134.2481384,126.0162125,125.7108307,127.4352112,121.3392181,119.8386993,124.6385193,125.5550537,125.7081909,116.0168152,109.1108322,102.4924622
375.070007,136.3366089,145.1624146,158.993103,135.6149139,151.2072601,145.415329,135.2514801,125.6350708,125.7018433,127.2190094,122.1072159,121.3842316,125.4085159,125.1887665,124.6068039,117.3915558,109.3712387,102.9411774
376,135.7792969,144.4367981,158.12294,134.0580139,149.7836609,144.7138672,134.2528534,125.9710922,128.2397919,128.703537,122.0940323,120.8850098,124.519043,125.6162338,125.9435425,117.1384659,111.7441254,104.4269485
377.070007,131.425415,141.8519592,157.31955,132.2388611,147.7691345,145.4753265,134.1964264,126.1248856,126.1117783,126.4366531,121.7322388,118.8673172,123.3519516,125.217186,124.3562088,117.5051498,109.7061768,102.5736465
378,129.5942535,139.033432,153.407516,130.9143066,148.2442932,143.3668976,132.812912,125.5778961,124.9692383,124.4807053,119.4906616,116.838562,122.7773514,122.1501389,122.7305298,116.6753082,109.2115784,103.4799728
379.070007,127.8497849,136.0180969,151.283798,127.8421555,145.3996429,139.9247284,130.6461334,124.0172653,124.5851898,124.1400986,119.1724014,117.0654144,121.4017792,122.4744263,122.0825272,115.0575943,107.2780762,102.4343872
380,124.6757355,133.7220459,150.230148,126.5502548,143.4167633,142.2162018,130.7150726,121.14711,122.0734482,122.2091217,119.4797287,116.6834717,120.7672119,121.4725571,118.3638763,115.7638474,106.7751465,101.8987427
381.070007,123.2478638,132.2323456,148.46283,123.2742386,143.0613556,141.1776733,129.4988251,121.6499863,123.4409561,120.6596527,118.5155869,115.457077,119.4660873,121.0864029,118.6175613,115.8326416,107.073143,102.2924194
382,121.4579926,132.3171539,147.280731,122.3617249,142.5177917,141.6725464,129.2443237,120.7825394,122.6280746,120.7666016,117.7089539,115.7932663,119.2771606,120.6527939,117.115387,115.7072372,106.1920853,102.9888382
383.070007,118.6841354,129.4352722,146.709549,121.2386551,140.3421326,139.0202026,128.5117493,120.0151978,121.5822906,120.2860794,117.6617508,114.8461533,118.6453857,119.3904266,116.8488541,114.9306335,104.6830444,102.2669373
384,117.1069717,127.6198807,144.858673,118.0820847,140.0540314,139.9880524,127.4227676,118.7079773,120.6578445,119.0183792,116.4778061,115.0877228,117.5795212,118.3751831,115.5566101,114.8508453,104.2970657,101.7091599
385.070007,114.8217697,125.9132309,141.643799,117.9965057,137.532608,138.4960938,125.4676895,117.92276,119.9111481,116.5112076,116.1899033,113.6254349,116.928894,117.6966171,114.1390533,114.2880783,104.6003113,101.2465973
386,113.4929886,122.9160385,140.093567,115.7241364,136.1031952,137.962326,125.0548782,116.5304565,118.4235687,114.9851074,115.5790253,112.364151,114.6140366,116.7993927,112.4303741,112.2267914,102.3401947,100.7057648
387.070007,112.2663269,121.2447433,137.405045,113.2905807,134.1386566,135.6420898,122.587326,114.985817,116.6902466,113.1907578,112.6966019,110.2084198,112.4272308,115.0687943,111.2456284,112.5534134,101.7117615,99.84243774
388,109.3110962,118.8583298,135.279419,111.5306244,132.654953,134.2380371,120.9204865,112.8319626,115.0254745,113.4362106,113.4993286,109.4198608,112.9376526,113.4036713,109.9034042,111.5849991,100.6953888,100.6988602
