Wavelength (nm),30 s,60 s,90 s,120 s,150 s,180 s,210 s,240 s,270 s,300 s,330 s,360 s,390 s,420 s,570 s,600 s
599.9901733,-0.00400519,0.003046906,-0.002575715,0.001015839,0.001470012,0.009146253,0.005267119,0.001166278,0.000972174,0.008526591,0.062083121,0.002410318,0.002465219,0.009257381,0.015363723,0.007312842
598.9869385,-0.003889962,0.003046307,-0.002514569,0.001083565,0.00167333,0.009217585,0.005245948,0.001236857,0.001002659,0.00850006,0.061236497,0.002515648,0.002530984,0.009305987,0.015724791,0.007383953
597.9835815,-0.003986928,0.003180709,-0.002535312,0.001218452,0.001682088,0.009233925,0.005323876,0.001357145,0.001127476,0.008578573,0.063326016,0.002599389,0.002718519,0.009380732,0.01583614,0.007572358
597.0170898,-0.003870771,0.00328161,-0.002279222,0.001390722,0.001892213,0.009580378,0.005807133,0.001531652,0.001198957,0.008622483,0.063056707,0.002734825,0.002779737,0.009555186,0.016092606,0.00768448
596.0131226,-0.003896786,0.003444994,-0.002232405,0.001471129,0.001950142,0.009691406,0.005838196,0.001478869,0.001209159,0.008648651,0.063587196,0.00271805,0.002743474,0.009603614,0.016220655,0.007663376
595.0088501,-0.003949837,0.003622143,-0.002218601,0.001513858,0.001929029,0.009742126,0.005977061,0.001594289,0.001314042,0.008648097,0.062696576,0.002695935,0.002949526,0.009784353,0.016509321,0.007924973
594.0043945,-0.003567768,0.003795996,-0.001935833,0.001900299,0.002148769,0.009916407,0.006198832,0.001711142,0.001556903,0.008715994,0.063130222,0.002964955,0.003269012,0.00982939,0.016837839,0.008042672
592.9996948,-0.00362933,0.0038961,-0.001980311,0.00203367,0.002259422,0.010098098,0.006167402,0.001842194,0.001610605,0.008796448,0.062833533,0.003001837,0.003223424,0.009841015,0.017145198,0.008162777
591.9946289,-0.003333659,0.004022666,-0.001716777,0.002308683,0.002410188,0.010080426,0.006295578,0.001974195,0.00180003,0.008980974,0.062983379,0.003265152,0.003628695,0.010064504,0.017602116,0.008327005
590.9893799,-0.003419962,0.004165342,-0.001819848,0.00243739,0.002330387,0.010303191,0.00647844,0.001929419,0.001790439,0.008951773,0.062708713,0.003201466,0.0034714,0.01005343,0.017753072,0.008514368
589.9839478,-0.003553339,0.004254473,-0.001472896,0.002543925,0.002595769,0.010551318,0.006645266,0.002012995,0.001952145,0.009114767,0.063387416,0.003238524,0.003677328,0.010223331,0.018022574,0.008724762
589.0153809,-0.003632873,0.004379889,-0.001500706,0.002633921,0.002706458,0.010609141,0.006799823,0.001942446,0.001997652,0.009108502,0.062790282,0.003456918,0.003915637,0.010383675,0.018287653,0.008917158
588.0093994,-0.003396179,0.004530817,-0.0013748,0.002820511,0.002835336,0.010680502,0.006932762,0.00220538,0.002057884,0.009254287,0.063578896,0.003593614,0.004070507,0.01044532,0.018886099,0.009075539
587.0030518,-0.003383696,0.004737274,-0.001254278,0.00279193,0.003117088,0.010853834,0.0070629,0.002288098,0.002417112,0.009305194,0.06306158,0.003583565,0.004219028,0.010586037,0.019152056,0.009125737
585.996521,-0.003332477,0.004933698,-0.001082805,0.003244783,0.003164829,0.011031509,0.007164207,0.002314642,0.002503958,0.009327991,0.064090945,0.003664353,0.004401697,0.010798898,0.019521056,0.009427711
584.9897461,-0.003334532,0.004974752,-0.001032864,0.003346612,0.003174607,0.010967763,0.007461396,0.002383482,0.002459465,0.009419881,0.063685201,0.003853214,0.00438619,0.010802878,0.019892996,0.009560505
583.982666,-0.003053312,0.005445092,-0.000636328,0.00362632,0.003563703,0.011423912,0.007585212,0.002778565,0.002872414,0.00965337,0.064449199,0.004138763,0.004955926,0.011042343,0.020417683,0.010166487
583.0126343,-0.00288116,0.005560101,-0.000470507,0.003762312,0.003622091,0.011657444,0.007940158,0.002898629,0.003021777,0.009668854,0.064946942,0.004237979,0.005160438,0.011207026,0.020918883,0.010273715
582.005127,-0.003070482,0.005549456,-0.0005307,0.003815895,0.003775942,0.011472548,0.007826599,0.002619467,0.002988804,0.009573736,0.064238548,0.004221537,0.005036421,0.011124716,0.021160379,0.010352603
580.9973145,-0.002816251,0.005746772,-0.000416926,0.004168164,0.003991838,0.01179507,0.008101138,0.003028059,0.003147463,0.009984053,0.063545212,0.004360565,0.005333467,0.011428801,0.021882594,0.010820765
579.9892578,-0.002835231,0.005993227,-0.00013852,0.004396571,0.004182017,0.011989523,0.008328272,0.003219356,0.003518971,0.010019786,0.06479501,0.004626223,0.00568259,0.011651993,0.022612585,0.011206203
579.0183105,-0.002854261,0.006048373,-0.000255368,0.004476831,0.004216518,0.012012701,0.008452177,0.003209472,0.00344609,0.009771009,0.064251728,0.004578164,0.005745093,0.011627478,0.023191219,0.011319322
578.0097046,-0.00279619,0.006373168,-2.07E-07,0.004611913,0.004359624,0.012424584,0.008545228,0.003390021,0.003740457,0.010132516,0.065463796,0.004768601,0.006138469,0.011928376,0.023788234,0.011942611
577.0008545,-0.002695099,0.006379867,0.000183544,0.00482757,0.004592003,0.012352536,0.008735168,0.003429991,0.003866142,0.010226379,0.065542601,0.005034509,0.006319584,0.011879183,0.024602491,0.012237737
575.9918823,-0.002744387,0.006454819,0.000323177,0.004925817,0.004636584,0.01237632,0.008851766,0.003627207,0.003911876,0.010298233,0.06519337,0.005032047,0.006405244,0.012336477,0.025205348,0.012684508
574.9824219,-0.002687433,0.006669922,0.000335664,0.00500476,0.004757452,0.012651246,0.009029337,0.003544573,0.004126768,0.010324768,0.06472782,0.005165808,0.006645607,0.012453886,0.026001159,0.013094227
574.0103149,-0.002460056,0.006931578,0.00070607,0.005365334,0.004981089,0.012832965,0.009220414,0.003826341,0.00440915,0.010601979,0.065237641,0.005558686,0.007011335,0.012751252,0.027208272,0.013811185
573.0004272,-0.002609012,0.006926397,0.00066342,0.005414634,0.005081649,0.012826619,0.00940274,0.003848356,0.004271988,0.010464385,0.066212058,0.005601714,0.007170233,0.01280793,0.028339688,0.014288335
571.9904175,-0.002219065,0.007293466,0.001009794,0.005723086,0.005439797,0.013370409,0.009964504,0.004093319,0.004780693,0.010723085,0.065364636,0.00598517,0.007695599,0.013351856,0.029863609,0.015276921
571.0174561,-0.002150966,0.007542751,0.00121326,0.005944072,0.005608348,0.013613404,0.01015231,0.004427481,0.005011281,0.010874032,0.065262467,0.006304062,0.008132471,0.01381359,0.031158634,0.016148351
570.006958,-0.002014323,0.007842492,0.001528405,0.006304954,0.005899278,0.013878798,0.010319652,0.004699382,0.005255747,0.011247802,0.066248238,0.006713612,0.00877212,0.014279053,0.033205837,0.017273072
568.9960938,-0.00209213,0.007884693,0.001545135,0.006418248,0.005866873,0.013873185,0.010502493,0.004670572,0.005413218,0.011179933,0.067387357,0.006896703,0.008933936,0.014594082,0.035050511,0.018226152
567.9851074,-0.001943409,0.008279353,0.001653192,0.006587469,0.006161049,0.014133042,0.010863973,0.005037442,0.005864616,0.011544583,0.066783309,0.007353595,0.009697997,0.015053923,0.037564222,0.019771934
567.0111694,-0.001802474,0.008442438,0.001930875,0.007020227,0.006406216,0.014477298,0.011263927,0.005325763,0.006121772,0.011668878,0.066337287,0.007747641,0.010320845,0.015857,0.040281225,0.021173887
565.9996948,-0.001670054,0.008715888,0.002107668,0.007232188,0.006683512,0.014853138,0.011715733,0.005547097,0.006556142,0.011918745,0.068470374,0.008333259,0.011010985,0.016463637,0.043223053,0.022884874
564.987793,-0.001640347,0.009046385,0.002496955,0.007492867,0.006873243,0.015287995,0.012093343,0.005938142,0.00677282,0.012220751,0.068297416,0.008722305,0.011635588,0.017325521,0.046457361,0.024871126
564.0133057,-0.00144849,0.009207537,0.002687079,0.007794102,0.007028172,0.01547463,0.012431083,0.006245338,0.007253613,0.012552675,0.06871853,0.009233661,0.012545747,0.017995052,0.049967311,0.026677798
563.0009766,-0.001412782,0.009411892,0.002739619,0.007933594,0.007034302,0.015736897,0.012836484,0.006441788,0.007722476,0.012885706,0.069160908,0.009934258,0.013604135,0.018843925,0.054551005,0.02932368
561.9884644,-0.001275288,0.009643551,0.003049226,0.008445262,0.007424924,0.016107919,0.013271087,0.006906066,0.008256664,0.013349187,0.069492929,0.010628267,0.014781784,0.020127198,0.059564516,0.032223225
561.0132446,-0.001371342,0.009876445,0.00327402,0.008562838,0.00776701,0.016382288,0.013738239,0.007326873,0.008752442,0.013547995,0.070416063,0.01151824,0.016062226,0.02116905,0.064922079,0.035037603
560.0001831,-0.00143012,0.009890083,0.003304041,0.008697664,0.007617114,0.016566759,0.013997453,0.007706218,0.009168328,0.01397326,0.070580333,0.012171125,0.017196607,0.022426456,0.070635974,0.038288731
558.9868164,-0.001239565,0.010252485,0.003649004,0.009201773,0.007984742,0.017224913,0.014862674,0.008231785,0.010283178,0.014603104,0.072375648,0.013410026,0.019059004,0.023933316,0.077579029,0.041991334
558.0109253,-0.001085336,0.010606833,0.003859456,0.009510256,0.008307374,0.01761492,0.015544219,0.008926273,0.0109418,0.015100395,0.072769515,0.014601042,0.020784039,0.025692992,0.085037231,0.046133675
556.9971924,-0.000985086,0.010920112,0.004218034,0.00999629,0.008703237,0.018106796,0.016491842,0.009755813,0.012054324,0.015861027,0.073464014,0.016075119,0.023094295,0.027846662,0.093580984,0.050864574
555.9832153,-0.000699652,0.011169681,0.004556531,0.010376755,0.009198521,0.018769316,0.017385088,0.010652434,0.01319148,0.016763253,0.074913897,0.01762007,0.025578648,0.030023854,0.103572913,0.056078475
555.0065308,-0.000706009,0.011403103,0.004651864,0.010840988,0.009410702,0.019381583,0.01828355,0.011435818,0.014354953,0.017643254,0.076227523,0.019292323,0.028061969,0.032269228,0.113280103,0.061420858
553.9920654,-0.000617873,0.011739749,0.005038568,0.011293177,0.009917599,0.020182459,0.019464388,0.012621824,0.01579128,0.018627491,0.078319579,0.021271853,0.030969085,0.035137177,0.124236725,0.067395948
553.0148926,-0.00046849,0.011831272,0.00521988,0.011777169,0.01043824,0.020904597,0.020733479,0.013578895,0.017235847,0.019632353,0.079539314,0.02334252,0.034086704,0.038018763,0.13566801,0.073436022
551.999939,-0.00025335,0.012357117,0.005738719,0.012643997,0.010914511,0.022015411,0.022346543,0.015050842,0.01918444,0.021022633,0.081100158,0.025744764,0.037794143,0.041248899,0.148193345,0.08017844
550.9848022,-0.000310003,0.012589633,0.005923997,0.013100363,0.011498862,0.022941824,0.023880064,0.016588731,0.021113444,0.022288661,0.083154775,0.028416842,0.041606143,0.044733252,0.162279233,0.087508254
550.007019,-0.000124235,0.012909786,0.006295998,0.013851617,0.012124885,0.024035435,0.025582436,0.018177941,0.023103002,0.023745308,0.084922388,0.031110773,0.045671482,0.048492089,0.176782608,0.094838418
548.991333,5.54E-05,0.013281442,0.006703307,0.014608378,0.012889386,0.025377357,0.027566198,0.020046704,0.025731003,0.025637271,0.087804288,0.034414031,0.050570913,0.052570235,0.192778036,0.103019841
548.0130615,0.000169897,0.013538008,0.007034091,0.015428252,0.013755525,0.026750006,0.029817803,0.022049235,0.028404875,0.027322853,0.090765379,0.037636254,0.055342928,0.057203539,0.208477393,0.111173868
546.9968872,0.000345327,0.01382925,0.007553919,0.016252069,0.014701713,0.028461199,0.032243382,0.024093905,0.030919077,0.029015416,0.094369017,0.040925883,0.060194429,0.061313763,0.223284841,0.118730545
546.0181885,0.000295615,0.014137321,0.007923655,0.017153896,0.015617792,0.030150583,0.034780249,0.026199853,0.033720262,0.030689457,0.097427584,0.04422047,0.0650516,0.065584563,0.238868639,0.126384303
545.0015259,0.000437279,0.01450912,0.008464267,0.018244591,0.016657045,0.03198383,0.037543617,0.028783178,0.036937717,0.032922924,0.100848503,0.048303213,0.070625372,0.070464835,0.25567925,0.134738743
543.9847412,0.000536352,0.014872907,0.00916489,0.019762967,0.018221725,0.034533191,0.041301876,0.032062944,0.041048039,0.035554457,0.10414774,0.053002156,0.077545539,0.076229282,0.27555421,0.14431563
543.0053101,0.00078674,0.015451963,0.010108086,0.021338435,0.019904677,0.037119262,0.045167416,0.035510801,0.045332491,0.038326561,0.109141231,0.057723347,0.08461573,0.082285628,0.294198841,0.153555065
541.987915,0.000851265,0.015855363,0.01070958,0.022919474,0.021580243,0.039630007,0.048937645,0.038532473,0.049351674,0.040799525,0.113959462,0.06202504,0.09064398,0.087929592,0.311041802,0.161796555
541.0080566,0.001080503,0.016422505,0.011497321,0.024439989,0.023301631,0.042276282,0.052817479,0.041494966,0.053033102,0.042951543,0.11794284,0.066354327,0.096315973,0.092730671,0.325337976,0.168732181
539.9902954,0.001083124,0.016920459,0.012289261,0.026228093,0.025041413,0.045165807,0.056727801,0.045016788,0.057380609,0.045554318,0.120127879,0.070841461,0.102759853,0.097914666,0.341517746,0.175960451
539.0100098,0.001293764,0.017491445,0.013427193,0.028724765,0.027424751,0.048827183,0.061804194,0.049343061,0.062385749,0.048844419,0.125374466,0.076112829,0.110212863,0.104199432,0.359087497,0.184524432
537.9917603,0.001403862,0.018220646,0.01475594,0.03149851,0.030154441,0.052757964,0.067368738,0.05398538,0.067853563,0.052271273,0.129630432,0.081828654,0.117999323,0.110693403,0.377390057,0.192698032
537.0109863,0.001567866,0.01877467,0.016001899,0.033885717,0.032560613,0.056189593,0.072133951,0.057546463,0.072419472,0.054852922,0.135078341,0.086477466,0.124062054,0.115749583,0.390149236,0.198510081
535.9922485,0.001725643,0.019497771,0.017379241,0.036622398,0.035117667,0.059954599,0.07714992,0.06159196,0.077129543,0.057579152,0.138542265,0.091017649,0.12989068,0.120784812,0.403354704,0.204104409
535.0111084,0.001954381,0.02044251,0.018976329,0.039511368,0.037954178,0.063623786,0.082544185,0.065915309,0.082197249,0.060533501,0.140660688,0.095695004,0.136270091,0.125642121,0.41548714,0.209317252
533.9919434,0.001954329,0.021102764,0.020591961,0.042536661,0.040887885,0.068003871,0.087889187,0.070041597,0.087002769,0.063459046,0.147853121,0.099950999,0.142521933,0.130694822,0.427191049,0.214289591
533.0102539,0.002129623,0.022066884,0.022295475,0.045647703,0.043771561,0.072015837,0.092968494,0.073922113,0.091560461,0.066024117,0.151583299,0.103924364,0.147599816,0.134744167,0.436053604,0.218199
531.9906006,0.002306679,0.023290023,0.024453847,0.049673066,0.047153529,0.076594427,0.09904635,0.078605786,0.096863508,0.068964675,0.154765755,0.108599976,0.153725937,0.139548272,0.446409494,0.222449273
531.0085449,0.002543977,0.024571536,0.026686249,0.053359956,0.050493035,0.080935232,0.104373008,0.082731619,0.101396851,0.071688443,0.158489302,0.112422593,0.158640266,0.143232569,0.454490572,0.225921467
529.9885254,0.002647933,0.025774347,0.02879142,0.057039857,0.05376694,0.084919371,0.109253511,0.086840704,0.105860435,0.074044243,0.160979644,0.116024502,0.163246796,0.146551773,0.461578697,0.228570834
529.0059814,0.002768483,0.026914807,0.030897563,0.060565405,0.056860063,0.089066654,0.114252314,0.090014048,0.109497927,0.075823851,0.165355191,0.118902579,0.166782156,0.149717346,0.466652662,0.230649799
527.9853516,0.002951846,0.028519854,0.033396255,0.064456433,0.060010649,0.093148895,0.119166113,0.093581304,0.113364548,0.077881441,0.168871328,0.121991821,0.170323193,0.152411163,0.471601367,0.232537568
527.0024414,0.003173408,0.030261336,0.036139861,0.068659827,0.063492328,0.097609229,0.124341771,0.097388938,0.117520444,0.08015652,0.170528978,0.125005111,0.174061671,0.155155391,0.476435065,0.234281585
525.9814453,0.003434192,0.032145612,0.038963169,0.073000021,0.067001633,0.101817392,0.12914665,0.100850396,0.121172003,0.082215704,0.174713641,0.127471268,0.177353472,0.157828078,0.480044991,0.235683262
524.9980469,0.003651562,0.034010384,0.041547488,0.076591402,0.069848284,0.105130099,0.133076638,0.103683986,0.123862803,0.083523966,0.176140443,0.129556373,0.179631859,0.159356713,0.482281983,0.236313105
524.0144043,0.003872123,0.036032408,0.044479296,0.080790631,0.073213831,0.108867943,0.137508124,0.106789269,0.12716417,0.085291229,0.177223072,0.13166216,0.182165057,0.161126748,0.484768391,0.237154082
522.9927368,0.004068364,0.038293507,0.047469404,0.084745057,0.076301485,0.112567388,0.141471654,0.109355919,0.129758284,0.086681142,0.17908825,0.133419558,0.18424122,0.162685499,0.486511976,0.237522498
522.008728,0.004390034,0.040612858,0.05030695,0.088660464,0.079096459,0.115733162,0.144925997,0.11176157,0.132197008,0.087914445,0.181240469,0.134897411,0.186161012,0.163911119,0.487449199,0.237776354
520.9864502,0.004672692,0.042947803,0.053170763,0.092396095,0.081855528,0.118529953,0.147970364,0.113894753,0.134364411,0.08904238,0.181714356,0.136317745,0.187548265,0.164887965,0.488086522,0.237777695
520.0020142,0.004951659,0.045429938,0.056124073,0.096081182,0.084557667,0.1215491,0.151053414,0.11605598,0.136534348,0.090030961,0.182662979,0.13753359,0.189002901,0.165863618,0.488510191,0.237782449
519.017395,0.005125233,0.047819376,0.058813501,0.099440828,0.087008558,0.12422818,0.153885439,0.117915265,0.138111517,0.090846643,0.185066164,0.138365731,0.190008164,0.166653141,0.488321245,0.237403572
517.9945679,0.00541141,0.050257456,0.061335526,0.102340624,0.088980705,0.12631841,0.15607968,0.119153544,0.139328405,0.091252685,0.185720205,0.138943374,0.190562606,0.167001426,0.487608582,0.23694779
517.0094604,0.005653768,0.052828502,0.063797168,0.105279408,0.091016144,0.128622741,0.158214286,0.120556474,0.14064984,0.092044525,0.186541408,0.139569834,0.191200852,0.167279825,0.487018973,0.236473396
515.9862061,0.006218106,0.055651516,0.066688739,0.108380318,0.093149863,0.130519882,0.160333008,0.121928714,0.14204222,0.092715442,0.186536267,0.140254125,0.191825464,0.16780065,0.486330897,0.235926911
515.0006714,0.00655517,0.058517616,0.069310278,0.111214466,0.095027752,0.132428989,0.162275598,0.123216599,0.143189251,0.093288653,0.186897576,0.140697584,0.192471817,0.167836919,0.48526305,0.235185236
514.0148926,0.006862961,0.061346944,0.071720317,0.113912687,0.096583933,0.134334534,0.163868979,0.124174014,0.144082621,0.093598969,0.187720537,0.140996456,0.192544594,0.167931095,0.48373571,0.234374285
512.9909668,0.007300864,0.063921764,0.073873661,0.116098963,0.098119304,0.135567904,0.165293604,0.125007972,0.144797549,0.093830332,0.18830061,0.141299203,0.192796677,0.167953849,0.482432395,0.23362799
512.0047607,0.007707984,0.066240102,0.075871758,0.118052796,0.099308349,0.136870742,0.166623861,0.125746027,0.145367384,0.094129458,0.188593403,0.141508907,0.192794591,0.168048516,0.481114358,0.233038008
511.0184326,0.008286054,0.068615504,0.077709623,0.119940519,0.100485817,0.137996689,0.167752072,0.126364842,0.146040916,0.094354793,0.188180178,0.141610503,0.192946822,0.167955682,0.479957432,0.232267827
509.9937744,0.008837711,0.071266241,0.079525292,0.121745035,0.101624355,0.139238328,0.168813437,0.127236471,0.146503389,0.094606966,0.189541683,0.14172712,0.192868397,0.16779989,0.478495151,0.231547371
509.0069885,0.009588714,0.073952682,0.081552558,0.123634353,0.102801211,0.140360072,0.170022711,0.12783663,0.147047728,0.094947763,0.189512238,0.141795397,0.193082228,0.167857632,0.477187097,0.230967343
507.9819946,0.010027972,0.0760855,0.082917154,0.124950372,0.103708603,0.141222909,0.17079483,0.128191009,0.147582531,0.09498883,0.189029932,0.141832501,0.192659587,0.167414844,0.475836694,0.230158299
506.994751,0.010613969,0.07797467,0.084068418,0.126340628,0.104339957,0.141973436,0.171536386,0.128603593,0.147823215,0.095090322,0.189341202,0.141664922,0.192665324,0.16741012,0.474466085,0.229571775
506.0073242,0.011169867,0.079783618,0.085271917,0.127412081,0.105195031,0.142807469,0.172254935,0.1290344,0.148109451,0.095197827,0.188884109,0.141682342,0.192552462,0.167119354,0.473520815,0.229159892
504.9816589,0.011996442,0.081887566,0.086514808,0.128559426,0.106004737,0.143564388,0.17298457,0.129363686,0.148402005,0.095452838,0.189450577,0.141727686,0.192523912,0.166907862,0.472357422,0.228706852
503.9937744,0.012756131,0.083638251,0.087828562,0.129793614,0.106726617,0.144359291,0.173787668,0.129884332,0.148762733,0.095429651,0.190458998,0.141605049,0.192366347,0.166728199,0.471468628,0.228268862
503.0057373,0.013489299,0.085343592,0.088836551,0.130800039,0.107506819,0.14515613,0.174406663,0.130203739,0.148933992,0.095535181,0.189311132,0.141554207,0.192120671,0.166617885,0.470645666,0.227976203
502.0174255,0.014194928,0.086674631,0.089560203,0.131724551,0.107927613,0.145463854,0.174843982,0.13042213,0.148985937,0.09557315,0.189846978,0.14141956,0.191977352,0.166522235,0.47016722,0.227513865
500.9908752,0.014957565,0.088021934,0.090362348,0.132654622,0.108479299,0.146103531,0.175201312,0.130687788,0.149145678,0.095750764,0.188628048,0.141367585,0.192031115,0.166301116,0.469295561,0.227312014
500.0021362,0.015845107,0.089469925,0.09134116,0.133546561,0.10920547,0.146814495,0.175823212,0.131043553,0.149353921,0.09580937,0.189455181,0.141491488,0.19196628,0.166233093,0.468873501,0.227174938
499.0132446,0.016762581,0.090692811,0.092105612,0.134454817,0.109728389,0.147401199,0.176425695,0.131210104,0.149563864,0.095911436,0.188851208,0.141327471,0.191855088,0.166159466,0.468627542,0.227116719
497.9861755,0.017573893,0.091775544,0.092754163,0.135330096,0.110178329,0.147874042,0.17680189,0.131388307,0.14960222,0.095764317,0.189281151,0.141280353,0.191686139,0.165998235,0.468129516,0.226985291
496.9968262,0.018329963,0.092681736,0.093481131,0.136061624,0.110756002,0.14828445,0.177302107,0.131568357,0.14971599,0.095844425,0.188441575,0.14127095,0.191561148,0.165902883,0.468083739,0.22708647
496.0072937,0.019023953,0.093511537,0.094104767,0.136729181,0.111320183,0.148911491,0.177699402,0.131759048,0.149870634,0.095842421,0.189099506,0.141279027,0.191547304,0.165977418,0.468009442,0.227179095
495.0175781,0.019984031,0.094588749,0.094890617,0.137617707,0.111827537,0.149262801,0.178130195,0.132093459,0.150060967,0.096037522,0.188535616,0.141394898,0.191611558,0.166004539,0.468477488,0.227340281
493.9895935,0.020846527,0.095456295,0.095739596,0.138631508,0.112504624,0.149954096,0.178612575,0.132489353,0.150437474,0.096409529,0.18945238,0.141596302,0.191987455,0.166172251,0.469202727,0.227799729
492.9994812,0.021618687,0.096224211,0.096318491,0.139364198,0.112930395,0.150254503,0.178731829,0.132661194,0.150468335,0.09637776,0.188256681,0.141647488,0.192156941,0.166117266,0.46951738,0.22807765
492.0091553,0.022066966,0.096716225,0.096767433,0.139911205,0.113218822,0.150785521,0.179260433,0.132646471,0.150493622,0.096301951,0.190014616,0.141517296,0.192012072,0.166324288,0.469745994,0.228387624
491.0186157,0.022816336,0.097470768,0.097408503,0.140647471,0.113851219,0.151296526,0.179943964,0.132906914,0.150825232,0.096247025,0.189216077,0.141696304,0.192197233,0.166471124,0.470469505,0.228795141
489.9897461,0.023726553,0.098347984,0.098289721,0.14167349,0.114380501,0.151705816,0.180233017,0.133338466,0.15108636,0.096722312,0.190312371,0.142049,0.192667544,0.166680545,0.471892178,0.22953625
488.9988708,0.024464061,0.099048235,0.098948516,0.142446324,0.114802316,0.152129248,0.180543602,0.133623526,0.15136233,0.096980356,0.189620301,0.142299563,0.193166181,0.167222947,0.473101139,0.230135515
488.0076599,0.024925815,0.099613391,0.099466637,0.143033922,0.115281515,0.15257676,0.181032896,0.133683741,0.151527226,0.096869335,0.190905526,0.142388478,0.193355471,0.167151541,0.474161446,0.230841667
487.0163269,0.025599103,0.100349955,0.100146949,0.143905878,0.115902118,0.153229222,0.181831002,0.134009227,0.151953012,0.097087555,0.190621093,0.142800391,0.193619549,0.167783842,0.475581944,0.231706753
485.9866333,0.026379216,0.101391159,0.101020612,0.144907206,0.116466567,0.153607965,0.182181284,0.134606168,0.1524501,0.097596042,0.190722168,0.143398911,0.19437094,0.168458626,0.478089005,0.232814193
484.9949341,0.026825363,0.102057859,0.101717033,0.145754978,0.117023282,0.154199109,0.182616413,0.134894162,0.152729109,0.097731754,0.191689238,0.143742189,0.19506447,0.168822438,0.479928941,0.233925447
484.0029907,0.027321447,0.102601275,0.102254823,0.146372318,0.117593162,0.155012548,0.183632121,0.135151655,0.153193608,0.097801238,0.193938926,0.144087777,0.19546634,0.169455767,0.481495142,0.234945327
483.0108948,0.027660126,0.103268854,0.10284254,0.147141829,0.118146122,0.155331478,0.184283987,0.135539427,0.153647125,0.098021872,0.193463445,0.144487307,0.196107209,0.169797733,0.483501971,0.235857576
482.0185242,0.028129959,0.104128592,0.103723258,0.148143023,0.118850812,0.156092092,0.184975401,0.136238784,0.154272392,0.098564647,0.19355984,0.145204008,0.197046667,0.170783967,0.486203373,0.237368882
480.987854,0.028759805,0.10513673,0.104649872,0.149257034,0.119559437,0.156881094,0.185826764,0.1369268,0.155096307,0.099216506,0.193242267,0.146028623,0.198284373,0.171880454,0.489548355,0.239076018
479.9950867,0.028896349,0.105765745,0.105185799,0.149844676,0.11987979,0.157167897,0.186147854,0.137070909,0.155513644,0.099388659,0.193230718,0.146474153,0.199007586,0.172506407,0.492455483,0.240414828
479.0021973,0.029284302,0.106534295,0.105825588,0.150684387,0.120414458,0.157779872,0.186938018,0.137631521,0.156037137,0.099704862,0.194208533,0.147156686,0.199955851,0.173240989,0.495215029,0.241886795
478.0090637,0.029623574,0.107431524,0.106665224,0.151750356,0.121272646,0.158628404,0.18798995,0.138464734,0.156845167,0.100321323,0.195528626,0.148001999,0.20104903,0.174154207,0.498474419,0.243514359
477.0157776,0.029958922,0.108238906,0.107444786,0.152539536,0.121874392,0.159301266,0.188788101,0.139145598,0.157640487,0.100895524,0.195376784,0.148795039,0.202214524,0.1753297,0.501777828,0.245303422
475.9839783,0.030360373,0.109257765,0.108368456,0.153715983,0.122588344,0.160389215,0.189924896,0.139792353,0.158642352,0.101508312,0.196816981,0.149769709,0.203482285,0.17646347,0.505976975,0.247265041
474.9903564,0.03072677,0.110170223,0.10933917,0.154883519,0.123391479,0.161312297,0.19108732,0.140702233,0.159706444,0.102016017,0.197348267,0.150926828,0.205054328,0.17765595,0.510249078,0.249550581
473.99646,0.031002,0.111106262,0.110167086,0.155766085,0.124201439,0.162000835,0.192094371,0.141492739,0.16054897,0.10253568,0.198060289,0.151786253,0.206328094,0.178843558,0.51400137,0.251407474
473.0022888,0.03127056,0.112006001,0.110956915,0.156740174,0.12477313,0.162968785,0.193164557,0.142217919,0.161457792,0.10297446,0.199237108,0.15270935,0.207735628,0.179981455,0.51806289,0.253465265
472.0080261,0.031506721,0.112826973,0.111798808,0.157770231,0.125520945,0.163841993,0.194199026,0.143096045,0.162490562,0.103620127,0.20015493,0.153709263,0.209145904,0.181383088,0.522173703,0.255567014
471.0135498,0.031809632,0.113900341,0.112761959,0.159053177,0.126369238,0.165034771,0.195652291,0.144136876,0.163607225,0.104386538,0.201216489,0.154914722,0.210746855,0.182707593,0.526732147,0.257909209
470.0188293,0.032255065,0.11516352,0.114001736,0.160292238,0.127437279,0.166096211,0.197134003,0.145260349,0.165114909,0.105277158,0.202651724,0.156351745,0.212823153,0.184607893,0.531997085,0.260596037
468.9857483,0.032362811,0.116032347,0.114735425,0.161352828,0.128129959,0.167029113,0.198271617,0.146143362,0.166097567,0.105841272,0.202259108,0.157442585,0.214365408,0.185671687,0.53670311,0.262841106
467.9906921,0.032929569,0.117302835,0.116021156,0.162746802,0.129284993,0.16851081,0.199970201,0.147427917,0.167683631,0.106867164,0.204229087,0.159000695,0.216595575,0.187452436,0.541860223,0.265556634
466.9954224,0.033119753,0.118248172,0.116925888,0.163889825,0.130075783,0.169550464,0.201303005,0.148296401,0.168791443,0.107545085,0.20574601,0.160157621,0.217952609,0.188808382,0.546267808,0.26769793
465.9999695,0.033637714,0.119562708,0.118175589,0.165386066,0.13107349,0.170992106,0.203023225,0.149796143,0.170289904,0.108461224,0.205930263,0.161606401,0.220084563,0.190545499,0.551871717,0.270448774
465.0043335,0.033857983,0.120746113,0.11914973,0.166826963,0.132186547,0.1723589,0.204713568,0.15090403,0.171805397,0.10936188,0.209177867,0.162977576,0.222324386,0.192467421,0.557392895,0.273222476
464.0084839,0.034214459,0.121876687,0.120196149,0.168199763,0.133144513,0.173657984,0.206314817,0.152241036,0.173316404,0.110206723,0.208563417,0.164445639,0.224278748,0.194089502,0.562609494,0.275802255
463.0125122,0.034551073,0.123094298,0.121275075,0.169471562,0.134187952,0.174940139,0.207973912,0.153370038,0.174644798,0.110969678,0.210403115,0.165873706,0.226308629,0.195794597,0.567902386,0.278495252
462.0162964,0.034883127,0.12425933,0.122468762,0.170888975,0.135127902,0.176243484,0.209455177,0.154707015,0.176216215,0.111982182,0.212207884,0.167391017,0.228255466,0.197442681,0.573570371,0.28115961
460.9815979,0.035357811,0.1257907,0.123779148,0.172712132,0.136489332,0.177839339,0.211584464,0.156374827,0.178009272,0.113095544,0.212023571,0.16909796,0.230856553,0.199535117,0.580433846,0.284340143
459.9849854,0.035834871,0.126999617,0.125077128,0.174231872,0.137793437,0.17953451,0.213821158,0.157730952,0.1797916,0.113979153,0.216513366,0.170746923,0.233122751,0.201628834,0.585972607,0.287460208
458.9882507,0.036472283,0.128715441,0.126545772,0.176124051,0.139304861,0.181387797,0.216035903,0.159537017,0.181792334,0.115247823,0.217638016,0.172760949,0.235637069,0.203820095,0.592581332,0.290709883
457.9913025,0.036796201,0.130018055,0.127704755,0.177722052,0.140502781,0.182979435,0.218019188,0.161040887,0.183467031,0.116308123,0.218312696,0.174338281,0.238149017,0.205753908,0.598910987,0.293806762
456.9941101,0.037299752,0.131423444,0.129023328,0.179436117,0.141903266,0.184604883,0.220052555,0.162602648,0.185458228,0.117504291,0.220904186,0.17602241,0.240508094,0.207757637,0.605119288,0.297010303
455.9968262,0.037939884,0.132890791,0.130405679,0.18130967,0.143293798,0.186491534,0.222273856,0.16420944,0.187254638,0.1185591,0.222003177,0.177846521,0.243232101,0.209935084,0.612174392,0.300383687
454.9993286,0.038359925,0.134522453,0.131940112,0.183392629,0.144772291,0.188323423,0.224609077,0.166087896,0.189218789,0.119734928,0.224473849,0.179821447,0.245800376,0.212335035,0.619119883,0.30380252
454.0015869,0.039073955,0.136185646,0.133504242,0.1852687,0.146331459,0.19018501,0.227046207,0.167975187,0.191480398,0.121073641,0.225861773,0.181735277,0.248804987,0.214578927,0.626285911,0.307214141
453.0037231,0.03962405,0.137651786,0.135025412,0.187142223,0.147815898,0.192048326,0.229354844,0.169599429,0.193260044,0.122291096,0.226532295,0.183573008,0.251097173,0.216799289,0.632242203,0.31043157
452.0056763,0.040061962,0.139044255,0.136269137,0.188803867,0.149081737,0.19370696,0.231460333,0.171081305,0.194996774,0.123114437,0.228048414,0.185175151,0.253435135,0.218640789,0.638487101,0.31332618
451.0074158,0.040726878,0.140862852,0.137880296,0.190979585,0.150806904,0.195551291,0.233798504,0.172965065,0.19709006,0.124529377,0.229857996,0.18718572,0.256120116,0.220871002,0.645469844,0.316785872
450.0089417,0.041414998,0.142578438,0.139539242,0.193098456,0.152427971,0.197641477,0.236290529,0.174796373,0.199307144,0.125797376,0.232900128,0.189298242,0.258760244,0.223086983,0.652456164,0.320272565
449.0103455,0.042038299,0.144352078,0.14117904,0.195163697,0.154163808,0.19990325,0.238911167,0.176755846,0.201480985,0.127061322,0.234533384,0.191271335,0.261511803,0.225313291,0.658762157,0.32354039
448.0115051,0.042581946,0.145913795,0.142710522,0.197205335,0.155663565,0.201589257,0.241126537,0.178449318,0.203234837,0.128164694,0.235933691,0.193021789,0.264033884,0.227459356,0.665397883,0.326718926
447.0125427,0.043175444,0.147541851,0.144154444,0.199189201,0.157151654,0.203549504,0.243296638,0.180040345,0.205108702,0.129251629,0.237683281,0.194650918,0.266336083,0.229414716,0.671357811,0.329692811
446.0133667,0.04394725,0.149433479,0.145959571,0.201369837,0.158974677,0.205815688,0.245907024,0.181897387,0.207371891,0.130460754,0.239516154,0.196694866,0.269160628,0.231800228,0.678165495,0.333186716
445.0140381,0.044650335,0.151306093,0.147803456,0.203589335,0.160820931,0.207715958,0.24854596,0.183829114,0.209603176,0.13190566,0.240645513,0.198771954,0.271946967,0.234007835,0.685223103,0.336636365
444.0144653,0.045323871,0.153175339,0.149589509,0.205913246,0.162549764,0.209904194,0.250976384,0.185698882,0.211679608,0.133113816,0.242366105,0.200856566,0.274673522,0.236478478,0.692363203,0.340054691
443.0147705,0.046110701,0.155091897,0.151369765,0.20821254,0.164329156,0.211975575,0.25367105,0.187644482,0.214015007,0.134532839,0.243880525,0.202914372,0.277564138,0.238883615,0.699828684,0.343879372
442.0149231,0.046813928,0.156934172,0.153176397,0.210437283,0.166119739,0.214022592,0.256120175,0.189674109,0.21602577,0.135822415,0.24625437,0.205014616,0.280383885,0.241424665,0.706904531,0.347524345
441.0148315,0.047494929,0.158855692,0.15484044,0.212695852,0.167855009,0.216213793,0.258892894,0.191468731,0.218239471,0.137008309,0.247894242,0.20700267,0.283242613,0.243482649,0.714158654,0.351213157
440.0145874,0.048307553,0.160787493,0.156751499,0.215005651,0.169694424,0.218451664,0.261505753,0.19349052,0.220358625,0.138247192,0.250462532,0.209121555,0.286091864,0.246091291,0.721705735,0.35493955
439.0141602,0.048958942,0.162648425,0.158583164,0.217389628,0.17132476,0.220722213,0.264071256,0.195429683,0.222652331,0.139645308,0.251502365,0.2112979,0.288979739,0.248426184,0.72940433,0.358520389
438.0135803,0.049715035,0.1646038,0.16040951,0.219920546,0.173182279,0.222761735,0.266738236,0.197482288,0.224949434,0.140916526,0.254691452,0.213503167,0.292010933,0.250910193,0.736877143,0.362331301
437.0127563,0.050603196,0.166729555,0.162307903,0.222453207,0.175204024,0.225201055,0.269502223,0.199498847,0.227432698,0.142300308,0.255203903,0.21583353,0.295075357,0.253707439,0.744503677,0.365973651
436.0117798,0.051314116,0.168756694,0.164292768,0.224992111,0.177047253,0.22737664,0.272288352,0.201646045,0.229893327,0.143825516,0.257750332,0.218219161,0.298339933,0.256172985,0.75271064,0.370098889
435.0106201,0.052244119,0.170874924,0.166349798,0.22737293,0.179024994,0.229785755,0.275136411,0.203882396,0.232352421,0.145266831,0.260306299,0.220541731,0.301676452,0.258925587,0.760598958,0.373790294
434.0093689,0.053200051,0.173124433,0.168448553,0.230072811,0.181094095,0.232305035,0.278389871,0.206243843,0.235016078,0.146898419,0.262774736,0.22312744,0.305095971,0.261761785,0.769173861,0.37791875
433.0078125,0.053952169,0.175236836,0.170421377,0.232763186,0.183067784,0.234789908,0.281319767,0.208275721,0.237450615,0.148100928,0.264610559,0.225511938,0.308408499,0.264621317,0.777405083,0.381924033
432.0061646,0.054927617,0.177539527,0.172717676,0.235554338,0.185201794,0.237307534,0.28431809,0.210772052,0.240372092,0.150013685,0.26769802,0.228164315,0.311811745,0.267315924,0.786446333,0.386181384
431.0042725,0.055839673,0.180023342,0.175117269,0.238556236,0.187508762,0.240166441,0.287780166,0.213389248,0.243175089,0.151603743,0.269068897,0.230969146,0.315792263,0.270537317,0.795651317,0.390499741
430.0022888,0.056703262,0.182229161,0.177262396,0.24120678,0.189344361,0.242744088,0.290839911,0.215530172,0.245671928,0.153160706,0.271265328,0.233410165,0.319092989,0.273547083,0.803837955,0.394404024
429.0000916,0.057634216,0.184627339,0.17948927,0.244191095,0.191563994,0.245266587,0.294080675,0.218066394,0.248468429,0.154781282,0.273886591,0.236037627,0.322681099,0.276381582,0.812223792,0.398814738
427.9976807,0.058625951,0.186975598,0.181826398,0.246910304,0.193757191,0.247911781,0.297154307,0.220491111,0.251289249,0.156354189,0.277273685,0.23855561,0.326207966,0.279295832,0.820521057,0.402649522
426.9951477,0.059620131,0.189570278,0.184080184,0.249832705,0.19605118,0.250957608,0.300842464,0.223181441,0.254259288,0.158166036,0.278925896,0.241330579,0.329903245,0.282329619,0.829360545,0.406873971
425.9924316,0.060561892,0.192012548,0.186409697,0.253074348,0.198456124,0.253846645,0.304207057,0.225832239,0.25742504,0.159918949,0.280426294,0.244247869,0.333570629,0.285447627,0.837862909,0.411330521
424.989563,0.061539877,0.194433525,0.188826174,0.25586912,0.200568289,0.25656867,0.307506234,0.228255689,0.260153264,0.1616043,0.282584846,0.246810779,0.337059677,0.288321883,0.84622699,0.415076852
423.9864807,0.062525362,0.196864307,0.191139936,0.258844554,0.202926487,0.25933072,0.311054915,0.23070474,0.262811571,0.16321449,0.286663741,0.249348939,0.340695113,0.291349351,0.853888691,0.418855429
422.9832153,0.0634754,0.199304521,0.193430752,0.261917681,0.205115885,0.261973172,0.314475775,0.233227074,0.265903682,0.164843649,0.288159013,0.251920462,0.344135523,0.294207722,0.862068772,0.422781736
422.0184021,0.064530641,0.202178568,0.196145311,0.265284896,0.207805842,0.265098661,0.318111599,0.236134499,0.268968523,0.166811496,0.290992051,0.254933745,0.347985566,0.297464699,0.871430695,0.42719534
421.014801,0.065548167,0.204812408,0.198555514,0.268198401,0.210375711,0.268144608,0.321909428,0.238849387,0.272051036,0.168539241,0.294808924,0.257627696,0.35177815,0.300570339,0.879951,0.430994004
420.0110779,0.066720068,0.207494333,0.201213762,0.271570534,0.212668449,0.271157503,0.325467944,0.241529301,0.27523914,0.170311749,0.296501279,0.260499984,0.355574161,0.303592116,0.888169348,0.435357332
419.0072021,0.067709409,0.210102633,0.203797951,0.274984062,0.215353951,0.274189591,0.32912457,0.244208768,0.278342694,0.172160342,0.298553467,0.263062209,0.359375238,0.306626022,0.896841645,0.439386666
418.0030823,0.068878733,0.212905273,0.206458449,0.278385013,0.217807636,0.27733019,0.332922518,0.246991217,0.281365335,0.173914835,0.302787125,0.265920728,0.363145828,0.309827983,0.905520082,0.443381578
416.9988098,0.069784626,0.215672463,0.208951816,0.281589031,0.22030437,0.28038013,0.336736023,0.249783739,0.284435809,0.17564553,0.304509968,0.268576056,0.367013246,0.312932164,0.91431433,0.447403848
415.9943848,0.071199171,0.219082579,0.212233871,0.285711914,0.223474309,0.28415665,0.341111273,0.253180116,0.288175583,0.177986026,0.307989419,0.271894485,0.371573925,0.316813558,0.924056292,0.452435285
414.9898376,0.072406657,0.221982062,0.215027228,0.289280236,0.226283953,0.287593693,0.344964683,0.256137401,0.291547656,0.179663047,0.310056895,0.27476427,0.375270903,0.319863349,0.932844758,0.45664537
413.9850464,0.073467232,0.2249493,0.218009815,0.292933881,0.228902027,0.290914744,0.349035025,0.258960426,0.294807881,0.181665972,0.315393329,0.277585179,0.379247785,0.323143661,0.942081988,0.460953683
413.0187073,0.07470955,0.22791101,0.22065638,0.296397388,0.231515959,0.293907493,0.352981746,0.261627972,0.297997505,0.183508545,0.317111552,0.280455858,0.382941663,0.326222837,0.950282037,0.464850396
412.0136108,0.075862601,0.23136206,0.223795265,0.300453425,0.234580696,0.29755953,0.357251406,0.265031397,0.30159533,0.185597941,0.318648696,0.283538222,0.387500674,0.329788715,0.959957957,0.469727099
411.0083923,0.077206098,0.23470147,0.227143064,0.304511547,0.237876177,0.301347762,0.361684173,0.268269271,0.305316925,0.187763766,0.321205437,0.286910594,0.391855389,0.333601654,0.970092416,0.474424928
410.0028992,0.078489535,0.23773697,0.229944617,0.308148384,0.240670428,0.304949462,0.365980506,0.271238416,0.308784753,0.189736337,0.325714022,0.289867729,0.395765692,0.336827695,0.978920937,0.478805751
408.9973145,0.07956098,0.240908384,0.232995063,0.311799258,0.243437037,0.308389813,0.369901717,0.274260402,0.312119722,0.191747874,0.326850891,0.292837203,0.399669498,0.340254813,0.988611579,0.483363658
407.9915466,0.080973633,0.244414583,0.236182123,0.31591937,0.246610299,0.311942369,0.374381423,0.277476937,0.315693051,0.193692848,0.329254806,0.296075165,0.40395996,0.343569428,0.998035908,0.487747431
406.9856567,0.082365103,0.248154238,0.239634261,0.320489854,0.249819025,0.316094846,0.379244059,0.281062633,0.319680572,0.19600971,0.332628667,0.299428374,0.408605009,0.347349256,1.00828135,0.492983341
406.0182495,0.083959706,0.252117723,0.243456766,0.325337917,0.253566563,0.320167899,0.384228408,0.284585714,0.324046105,0.198392466,0.335956693,0.303193897,0.413657636,0.351617128,1.020021677,0.498350948
405.0119324,0.08569961,0.25615719,0.247344971,0.33007887,0.257379949,0.324813128,0.389533788,0.288399935,0.328244031,0.200989112,0.340163082,0.307110697,0.418778211,0.35555771,1.030960917,0.503641725
404.0055847,0.08687833,0.259564698,0.250340313,0.333924383,0.260118246,0.328219652,0.393791348,0.291503042,0.331647605,0.202824712,0.343108296,0.309839159,0.42266044,0.359042317,1.040978312,0.508390427
402.9989624,0.088292338,0.263247341,0.253936797,0.338318676,0.263417721,0.332341969,0.398454428,0.294902414,0.335610718,0.204950705,0.345635682,0.313301265,0.427202165,0.362736404,1.050369382,0.513231278
401.9921875,0.090037428,0.267560005,0.257912725,0.343589217,0.267115623,0.336853802,0.403779626,0.29886204,0.340076596,0.207518712,0.348836422,0.317201912,0.432570159,0.366853416,1.06273675,0.518720806
400.9852905,0.091891862,0.272393227,0.262405396,0.349270552,0.271475107,0.341881007,0.409715444,0.303116739,0.344766527,0.210397854,0.353367776,0.321543276,0.438240528,0.371584594,1.075114727,0.524983466
400.0169373,0.093452886,0.276280433,0.266128629,0.353726,0.274904877,0.346184671,0.414506912,0.306673646,0.348722071,0.212841243,0.35662654,0.325112969,0.442876875,0.375474185,1.086532831,0.530209422
399.0096741,0.095090255,0.28064698,0.269936353,0.358850628,0.278559148,0.350370914,0.419766873,0.310352713,0.352772176,0.214954272,0.360487163,0.328759193,0.448077947,0.379424721,1.096605778,0.535400569
398.0023193,0.096791692,0.284664691,0.273937255,0.363587409,0.282145202,0.354558945,0.424920142,0.313898236,0.35706225,0.217403084,0.363110632,0.332223475,0.452533752,0.38363263,1.107480049,0.540965796
396.994751,0.098622501,0.289437145,0.278372049,0.369021893,0.286233485,0.359374225,0.430702865,0.318324059,0.361837477,0.220163807,0.366389155,0.33654663,0.457957745,0.387856841,1.120525002,0.546847999
395.98703,0.100609064,0.29477483,0.283081472,0.375201196,0.29088825,0.364869654,0.436891645,0.322788984,0.366824597,0.223109871,0.370593309,0.340984851,0.464433879,0.392895758,1.134172082,0.553319454
395.0179443,0.102565974,0.299546003,0.287793309,0.381163657,0.29497537,0.370028019,0.44255501,0.326946884,0.371550202,0.225881279,0.374748617,0.345237911,0.469874293,0.397505343,1.145880103,0.559188247
394.0098877,0.1043422,0.304030716,0.29155606,0.385960013,0.298686773,0.374322772,0.448392332,0.33068651,0.375736654,0.228067488,0.377407491,0.348853767,0.474579185,0.40165785,1.156574965,0.564418852
393.001709,0.106257156,0.309034079,0.296306163,0.391743094,0.302730113,0.379242748,0.453637779,0.33505708,0.380688757,0.230964959,0.381028473,0.352961332,0.479854494,0.405799627,1.170371294,0.570268929
391.9933472,0.108425133,0.314212501,0.301159143,0.397856891,0.307498008,0.3846533,0.460159957,0.339484662,0.385673016,0.233841091,0.385588437,0.357452601,0.486187637,0.411045253,1.183223248,0.576915443
390.9848022,0.110587366,0.319555014,0.305903047,0.4039931,0.311967909,0.389827699,0.46645081,0.343894303,0.390518606,0.236272201,0.39041248,0.361779958,0.491676778,0.415618986,1.195202827,0.583007157
390.0149231,0.112875544,0.325645268,0.311210603,0.410525262,0.31689772,0.395718455,0.473221481,0.34869796,0.395959288,0.239615336,0.394721955,0.366586506,0.497755855,0.420682937,1.209697962,0.590164781
389.0061035,0.115095392,0.331028193,0.316394359,0.416650981,0.32153061,0.401079148,0.479314089,0.353401065,0.401112467,0.242533863,0.398446649,0.371079385,0.503736198,0.425638884,1.223883867,0.596337259
387.9971313,0.11716751,0.336490303,0.321178526,0.42251116,0.32593739,0.4063842,0.485307723,0.357842565,0.406060785,0.245313034,0.402497083,0.375307709,0.509514451,0.430470675,1.236657858,0.602687657
386.9879761,0.119744822,0.342508227,0.326580048,0.429511577,0.331045419,0.412110448,0.492591292,0.362692922,0.411537707,0.248349652,0.407090068,0.37991184,0.516012907,0.435474664,1.250011206,0.609066308
386.0174866,0.122235872,0.348959714,0.332464069,0.436836958,0.336621553,0.418504447,0.499705166,0.367971987,0.417582601,0.251722485,0.411625236,0.385039598,0.522614121,0.440875262,1.266362906,0.616447032
385.0080261,0.124735318,0.355401576,0.338220328,0.44381845,0.3415806,0.42445901,0.506629527,0.373220861,0.423383623,0.255011022,0.415658861,0.390040904,0.5293594,0.446290255,1.280602574,0.623477638
383.9984741,0.127215236,0.361252457,0.343472183,0.450437546,0.346553266,0.43004635,0.51335752,0.377883971,0.42875737,0.258189857,0.420677096,0.394554138,0.535514355,0.451277614,1.294785261,0.63018471
382.988678,0.129278362,0.367110759,0.34884724,0.456598043,0.351285964,0.435289085,0.519937694,0.382406265,0.433411866,0.260810345,0.424316168,0.398959905,0.541494787,0.45611161,1.307924747,0.636312485
382.0175781,0.132100403,0.373328209,0.354711354,0.464289427,0.356716126,0.442094684,0.527407825,0.388087153,0.439587057,0.264173627,0.428706706,0.403988272,0.548291981,0.461669356,1.323312402,0.643628836
381.0075378,0.134923056,0.380463928,0.361061692,0.471861184,0.36265254,0.44894737,0.535424769,0.393638641,0.446058154,0.268068761,0.433906764,0.409475356,0.555746675,0.467776656,1.34064436,0.652046859
379.9973145,0.137668133,0.387075841,0.367287099,0.479847133,0.36823225,0.455301493,0.543016315,0.399309903,0.452354699,0.271590501,0.439153165,0.414828152,0.562800169,0.473411143,1.357201815,0.659619331
378.986908,0.140546933,0.394255757,0.373837411,0.487924337,0.373958677,0.461976141,0.551110387,0.405247599,0.458521009,0.275223136,0.444031209,0.420089901,0.569896698,0.479061186,1.372309804,0.667414725
378.0152283,0.142868325,0.400256515,0.37915197,0.494411111,0.379067183,0.468174189,0.557467103,0.409946173,0.464051396,0.278417707,0.449526966,0.424951047,0.576438963,0.484399349,1.387097001,0.674348533
377.0045471,0.145596996,0.406679124,0.384757221,0.501757622,0.384500295,0.474292159,0.564910829,0.415250599,0.469891548,0.281656265,0.454700053,0.429768533,0.58283782,0.49018544,1.402750611,0.681935787
375.9937134,0.149002895,0.414875895,0.392191887,0.510629475,0.391215712,0.481975377,0.574444354,0.42193237,0.477337897,0.285788745,0.459639221,0.436335594,0.59131515,0.496767223,1.42073226,0.691083014
374.9827576,0.152200565,0.423205644,0.399646908,0.519653976,0.398051292,0.48960954,0.583021462,0.428198338,0.484818637,0.289989978,0.464949131,0.442532957,0.599751234,0.503821075,1.439779401,0.700126171
374.010498,0.155056268,0.43012771,0.405925661,0.527763605,0.403963,0.496471822,0.591594219,0.434089899,0.490911663,0.293668896,0.470067382,0.447838545,0.607043088,0.509950638,1.456805706,0.707566202
372.999176,0.158344537,0.437557548,0.412951559,0.535728633,0.410293698,0.503575683,0.599599481,0.440173149,0.497441828,0.297550976,0.474529058,0.4538849,0.614962876,0.516099393,1.475504518,0.716366828
371.9877625,0.16206941,0.44642663,0.42074278,0.545740664,0.417245448,0.512145221,0.609740317,0.447273433,0.505468369,0.302183837,0.481241643,0.460828245,0.624365628,0.523395658,1.496275425,0.726654291
371.0150757,0.165323943,0.454698324,0.428420872,0.554866791,0.42414096,0.519889951,0.618864596,0.453801304,0.51314348,0.306395739,0.487621903,0.467140228,0.632244349,0.530279696,1.514384508,0.735936165
370.0033264,0.169091806,0.463243723,0.436389566,0.564565301,0.430982292,0.528145611,0.628359795,0.460916519,0.521103203,0.310535818,0.493732512,0.474214286,0.641818643,0.538040757,1.535097003,0.745421171
368.9914856,0.172687933,0.472244293,0.444128364,0.574339807,0.438444644,0.536286771,0.638050914,0.46775049,0.528775156,0.315085679,0.499263912,0.480948269,0.650844276,0.545550406,1.556254983,0.755309165
368.0183411,0.176021949,0.4807854,0.451370537,0.583147466,0.444797337,0.543754637,0.646707177,0.474295855,0.535497367,0.319423378,0.505759895,0.487138122,0.659093559,0.551800251,1.574347854,0.764201999
367.0061646,0.179755658,0.49007225,0.459482193,0.59375304,0.452312648,0.552877724,0.65747118,0.481731474,0.544005394,0.323744565,0.513021469,0.494537205,0.667967439,0.560100734,1.594143987,0.774284661
365.9938049,0.184208214,0.499975085,0.468982309,0.604823053,0.460624993,0.562324822,0.668633759,0.489852101,0.553262889,0.328977674,0.51892817,0.502224326,0.678573787,0.568314016,1.619921684,0.785571158
364.9813538,0.188630611,0.510473669,0.478289962,0.616445482,0.469030619,0.572741151,0.679660201,0.498140276,0.562539399,0.334519565,0.527695239,0.510325313,0.689607739,0.577110052,1.642977118,0.796731472
364.0076294,0.192639053,0.519826412,0.487569481,0.626770198,0.476691663,0.581737042,0.690571845,0.505618691,0.570751488,0.339204282,0.534298301,0.517671168,0.699398875,0.585643232,1.664021969,0.80764246
362.994873,0.19716689,0.531280279,0.496735454,0.638715327,0.485328913,0.591249645,0.70226711,0.513970673,0.579822242,0.344831646,0.540614367,0.525736451,0.710829079,0.593828559,1.689225793,0.819038749
361.9819641,0.201067865,0.541410029,0.506503522,0.650524676,0.493467927,0.601550698,0.713233471,0.52206248,0.588482738,0.349785656,0.550849557,0.533607423,0.720366657,0.602864862,1.711024284,0.830457449
361.0078735,0.205878809,0.551939309,0.515870929,0.661636472,0.501868486,0.611279368,0.725601137,0.530285716,0.597825646,0.354662001,0.557045877,0.541625917,0.730409145,0.61082089,1.736186504,0.841490209
359.9946594,0.211350843,0.56537956,0.527505994,0.676092744,0.512705684,0.623643696,0.739683569,0.54038012,0.609036923,0.361437738,0.564417601,0.551241636,0.743766904,0.621930659,1.764521241,0.855416656
358.9812927,0.21722129,0.57859844,0.53969729,0.690403521,0.523316801,0.635641873,0.753122568,0.551368296,0.619912863,0.367918015,0.573736072,0.561277628,0.756824136,0.632431746,1.794129848,0.869685769
358.0067749,0.221903011,0.590198517,0.550780356,0.701987267,0.532294154,0.646517575,0.765789866,0.559640288,0.630004764,0.37367335,0.583182752,0.569530964,0.767822385,0.642665505,1.818714619,0.881658196
356.9931335,0.226635873,0.602074742,0.560898602,0.715296328,0.541473866,0.657401264,0.778851152,0.568282485,0.639961898,0.379056484,0.590637565,0.578389585,0.778881013,0.652673781,1.841637373,0.89337939
356.0183716,0.232291117,0.616710663,0.573353946,0.729504705,0.551509857,0.669901967,0.792850018,0.579235017,0.651320458,0.385822713,0.59949106,0.58782351,0.791731834,0.662951231,1.868464828,0.90751344
355.004425,0.237600014,0.629490376,0.584905148,0.743592799,0.561550319,0.682494462,0.806897163,0.588970006,0.66215086,0.392080694,0.608764172,0.597918749,0.8052122,0.673578918,1.900605679,0.92175889
353.9903564,0.24230881,0.640395522,0.595598519,0.755748034,0.57043469,0.692812145,0.819454968,0.597550929,0.672174096,0.397739679,0.617072582,0.606153846,0.816618383,0.683288395,1.924896479,0.934627116
353.0151367,0.24585104,0.649722159,0.604196966,0.766709328,0.577754915,0.701536417,0.8296718,0.60491401,0.680382252,0.402271777,0.622909725,0.613430381,0.82652998,0.691484094,1.945878386,0.94547987
352.0007629,0.250557154,0.661724091,0.61407423,0.778806686,0.587401509,0.712458611,0.843086481,0.61431694,0.690306604,0.408741593,0.63062954,0.62226826,0.838444531,0.701304793,1.97636807,0.959353387
350.9862976,0.254410625,0.671707809,0.623369098,0.789846778,0.595326245,0.722246945,0.854897678,0.623059511,0.699706554,0.414324284,0.639041066,0.630616188,0.849892557,0.710790932,1.995094895,0.971263886
350.0107117,0.258183688,0.680539608,0.631758571,0.800544322,0.602606416,0.731587112,0.865338266,0.630844891,0.708643377,0.419411182,0.645596266,0.638588846,0.859982371,0.720175147,2.020555019,0.983072639
