Wavelength (nm),20 s,40 s,60 s,80 s,100 s,120 s,140 s,160 s,180 s,220 s,240 s,260 s,280 s,300 s
599.9901733,0.006099063,0.000496492,0.008352733,0.01396909,0.002204053,0.00217148,-0.00077294,-0.005635054,-0.003796978,-0.005196868,0.005615926,0.003071828,0.001083202,-0.001842738
598.9869385,0.006050237,0.000611624,0.008208307,0.013965614,0.002314642,0.002166563,-0.000810303,-0.005742361,-0.003729793,-0.005136192,0.005604546,0.003115549,0.001154935,-0.001894649
597.9835815,0.006126471,0.000586765,0.008275316,0.014066218,0.002095833,0.002309021,-0.000614977,-0.00570358,-0.003765363,-0.005245361,0.005673988,0.003064294,0.001098461,-0.001867741
597.0170898,0.00623964,0.000720434,0.008485277,0.014314954,0.002429867,0.00235696,-0.000522582,-0.005568971,-0.0036915,-0.005347598,0.005956039,0.003319431,0.001279043,-0.001725646
596.0131226,0.006210491,0.000767109,0.008541401,0.014313349,0.002358625,0.002322918,-0.000510792,-0.005608939,-0.003707721,-0.005334558,0.005790764,0.00319419,0.001314639,-0.001775869
595.0088501,0.006117282,0.000656991,0.008505789,0.014499833,0.002239724,0.002486671,-0.000418633,-0.005569789,-0.003718808,-0.005419442,0.005796587,0.003229735,0.001247604,-0.001811806
594.0043945,0.006319636,0.000888149,0.00856437,0.014699169,0.002526193,0.002683511,-0.000201243,-0.005456152,-0.003476872,-0.005161057,0.006174912,0.003459162,0.001532951,-0.00157747
592.9996948,0.006329118,0.000854144,0.008613769,0.014726992,0.002549106,0.002709402,-0.000137174,-0.005415505,-0.003452373,-0.005343252,0.006097593,0.003415224,0.001389086,-0.001580307
591.9946289,0.006394919,0.000912299,0.00867387,0.01489841,0.002552621,0.002893939,0.000100501,-0.005277073,-0.003350047,-0.005081137,0.006124082,0.003545199,0.001648722,-0.001499313
590.9893799,0.006424947,0.000937306,0.008609123,0.015095999,0.002478574,0.002846931,0.000136622,-0.005239836,-0.003414671,-0.005185511,0.006168926,0.003643652,0.001738716,-0.001569216
589.9839478,0.006292899,0.001116757,0.008684328,0.015166708,0.00256637,0.002986953,0.000291522,-0.005226895,-0.003394432,-0.005193543,0.006451378,0.003701895,0.001671979,-0.001358027
589.0153809,0.00640506,0.001043785,0.008761475,0.015223326,0.002537832,0.003045577,0.000274064,-0.005092957,-0.003290449,-0.005214056,0.006454241,0.003827594,0.001756415,-0.001376193
588.0093994,0.006478098,0.001019524,0.008914753,0.015396549,0.00263551,0.003237376,0.000415073,-0.005028583,-0.003089502,-0.005145453,0.006474026,0.003868258,0.001972479,-0.001284321
587.0030518,0.006482513,0.001094075,0.009052807,0.015516962,0.002598426,0.00334849,0.000575179,-0.004942189,-0.003225396,-0.00509966,0.006634568,0.003923056,0.001895593,-0.001260524
585.996521,0.006543686,0.001295218,0.008946541,0.015841052,0.002640615,0.003434009,0.000811532,-0.004913421,-0.002923741,-0.005068703,0.006713113,0.003942412,0.002004959,-0.000911316
584.9897461,0.006520009,0.001244022,0.008856072,0.015840972,0.00269333,0.003474557,0.000770247,-0.004827517,-0.003017067,-0.00513169,0.006755151,0.004061257,0.002101399,-0.001047015
583.982666,0.006761093,0.001547005,0.009190219,0.016290661,0.002908532,0.003752624,0.001248409,-0.004617957,-0.002736927,-0.004804528,0.006928265,0.004277817,0.002455821,-0.000711333
583.0126343,0.006768639,0.001657064,0.009194872,0.016293429,0.003035723,0.0038084,0.001322922,-0.004414088,-0.002771858,-0.004824445,0.007081081,0.004424134,0.002604493,-0.000481367
582.005127,0.006702282,0.001561943,0.009167667,0.016258061,0.002828588,0.003841645,0.001340527,-0.004567293,-0.002852924,-0.004869448,0.007100604,0.00440609,0.002631942,-0.000738055
580.9973145,0.006914088,0.00171847,0.009383298,0.016589725,0.002943193,0.004057155,0.001509131,-0.004381442,-0.0027111,-0.004828131,0.007260141,0.004542379,0.002900193,-0.000528891
579.9892578,0.006859069,0.001794,0.009440992,0.01678101,0.003163108,0.004270446,0.001813989,-0.004280873,-0.002615239,-0.004593881,0.007315132,0.004725472,0.003005069,-0.00039572
579.0183105,0.006723392,0.001833017,0.009206559,0.016666433,0.002984165,0.004328249,0.001875496,-0.004327931,-0.002746599,-0.004702469,0.007600227,0.004803411,0.002984477,-0.000390651
578.0097046,0.006956014,0.002046622,0.0095251,0.017100768,0.00313998,0.00442939,0.002021525,-0.00408818,-0.002600418,-0.004664672,0.007693729,0.005023117,0.003267264,-0.000166881
577.0008545,0.006943993,0.002045842,0.00946885,0.017080385,0.003130802,0.004688339,0.002228016,-0.004052072,-0.002647709,-0.004579947,0.007675865,0.005109543,0.003260379,-5.13E-05
575.9918823,0.007015202,0.002243055,0.009583633,0.01735343,0.00307102,0.004783624,0.002332209,-0.0040512,-0.002539018,-0.004556177,0.007722476,0.005133955,0.003275245,-5.76E-05
574.9824219,0.006861778,0.002195285,0.009553307,0.017402008,0.003174477,0.00464862,0.002416669,-0.003978053,-0.002585184,-0.004745436,0.007970293,0.005096369,0.003472078,5.71E-05
574.0103149,0.006990789,0.002588478,0.009751974,0.017706586,0.003290765,0.004999,0.00270276,-0.003882727,-0.002346632,-0.004438943,0.008074818,0.005503681,0.003747376,0.000390717
573.0004272,0.006939811,0.002563558,0.009497873,0.017826049,0.003220581,0.005008086,0.002725552,-0.00391772,-0.002354407,-0.004534198,0.00817768,0.005412458,0.003920835,0.000247333
571.9904175,0.007273803,0.002650407,0.010019362,0.018160477,0.003430591,0.005384204,0.003225588,-0.00347153,-0.002267943,-0.004229811,0.00850101,0.00578877,0.004326994,0.000556491
571.0174561,0.007335614,0.002858109,0.010097223,0.018351456,0.003622143,0.005486195,0.003402492,-0.003316293,-0.002083938,-0.004066587,0.008619341,0.006083129,0.004549886,0.000976714
570.006958,0.007309393,0.003004782,0.010147938,0.018717965,0.003761111,0.005787432,0.003704871,-0.003136741,-0.001860988,-0.00375402,0.009064015,0.006430386,0.005038908,0.00134746
568.9960938,0.007272039,0.003169705,0.010064609,0.018731531,0.003648456,0.005749212,0.00377884,-0.003211572,-0.001921813,-0.004031299,0.00902799,0.006525265,0.005115568,0.001408173
567.9851074,0.007338484,0.003241497,0.010152813,0.019061763,0.003828874,0.006021626,0.004168583,-0.003004984,-0.001674644,-0.00361172,0.009492422,0.00693463,0.005462576,0.001890939
567.0111694,0.00745447,0.003367403,0.010471758,0.019348886,0.003809915,0.006360928,0.004407868,-0.002823195,-0.001556887,-0.003485757,0.009787477,0.007355175,0.006076408,0.002349386
565.9996948,0.00762968,0.003672368,0.010513471,0.019646246,0.003975379,0.00656174,0.004684964,-0.002418252,-0.001338414,-0.003352359,0.010159411,0.00772129,0.006510523,0.002732872
564.987793,0.007589058,0.00365553,0.010500477,0.019890368,0.004089948,0.006582475,0.005043858,-0.002273248,-0.001233112,-0.003141264,0.010505277,0.008309511,0.007051613,0.003259153
564.0133057,0.007763321,0.003819003,0.010657288,0.020217929,0.004149687,0.006946887,0.005407373,-0.002136335,-0.001058326,-0.003024625,0.010881968,0.008661089,0.007452363,0.003767717
563.0009766,0.007781426,0.003840026,0.010792528,0.020349832,0.004211892,0.007350252,0.005624029,-0.002008191,-0.000902999,-0.002856627,0.011332951,0.009281102,0.008080251,0.0043374
561.9884644,0.007708089,0.004120836,0.010825939,0.020631047,0.004383288,0.007476381,0.006117571,-0.001770713,-0.000721154,-0.002495421,0.012016746,0.010021746,0.008973205,0.005074945
561.0132446,0.007762214,0.004010099,0.010876527,0.020837944,0.004306418,0.007634712,0.006399806,-0.001539193,-0.000568963,-0.002391325,0.012298289,0.010593835,0.00964535,0.005779037
560.0001831,0.007738629,0.003996122,0.010800011,0.020872816,0.004393748,0.007783218,0.006678964,-0.001402048,-0.000516946,-0.00221479,0.012959336,0.011200412,0.010526176,0.006612963
558.9868164,0.007929508,0.00424948,0.010977427,0.021291263,0.004672613,0.008106492,0.007281647,-0.000908578,-3.98E-05,-0.001704503,0.014005367,0.012303322,0.011684221,0.007768961
558.0109253,0.007912109,0.004415818,0.01104383,0.021612756,0.004662592,0.008438558,0.007954474,-0.000612599,0.000368332,-0.001381044,0.014757815,0.013402257,0.012912665,0.008871607
556.9971924,0.008075029,0.004594619,0.011255772,0.022055253,0.004880526,0.008963294,0.008606006,-0.000114763,0.000832643,-0.000761984,0.015646987,0.014914108,0.014499833,0.010390091
555.9832153,0.008281622,0.004814849,0.011263476,0.022405822,0.00506549,0.009463187,0.009273062,0.000448628,0.001283561,-0.000132568,0.016951492,0.016382745,0.016209666,0.012183957
555.0065308,0.008113824,0.004874479,0.011413946,0.022723095,0.005033566,0.00976018,0.009968054,0.000864571,0.001715663,0.000308152,0.018201776,0.017895935,0.017856769,0.013799935
553.9920654,0.008396436,0.005030554,0.011511222,0.023123479,0.005244219,0.010563094,0.010950321,0.001595588,0.002226168,0.001036727,0.01968273,0.019890042,0.020098647,0.015906699
553.0148926,0.008372288,0.005153156,0.011822547,0.023456603,0.005436861,0.010837113,0.011905548,0.00217559,0.0028147,0.001564801,0.021210933,0.02182366,0.022384861,0.018068798
551.999939,0.008695235,0.005434712,0.011964164,0.024138317,0.005772584,0.011802012,0.013130324,0.003101627,0.003731815,0.00263051,0.023282513,0.024392836,0.025128953,0.020835446
550.9848022,0.008520941,0.005633155,0.011926887,0.02444878,0.005893794,0.012525737,0.014387783,0.003967699,0.004557524,0.003573856,0.02528823,0.026989339,0.028123029,0.023616061
550.007019,0.008517668,0.005600953,0.011941227,0.024914164,0.005979292,0.01308721,0.015883742,0.004972396,0.005486641,0.004469587,0.027648594,0.02980957,0.031377871,0.026580809
548.991333,0.008551195,0.005925125,0.012030612,0.025587955,0.006122769,0.014113093,0.017567666,0.006120879,0.006607259,0.005780663,0.030447466,0.033288613,0.035098024,0.030293116
548.0130615,0.008708044,0.005950161,0.012294561,0.026110282,0.006500564,0.015172632,0.019604024,0.007426715,0.007819061,0.007064584,0.033536695,0.036827307,0.039140631,0.03397923
546.9968872,0.008910129,0.006171078,0.012594696,0.026794055,0.006869904,0.016182419,0.021528695,0.008856256,0.00902014,0.008481134,0.036306717,0.040336527,0.043160491,0.037796911
546.0181885,0.008873694,0.006334135,0.012876666,0.027407518,0.007075529,0.01732781,0.023651484,0.010260569,0.010396374,0.009903668,0.03968117,0.044114351,0.047276612,0.041603833
545.0015259,0.008848305,0.006501562,0.012786388,0.028227877,0.007463371,0.018733207,0.026325306,0.012062575,0.012055815,0.011495672,0.043198664,0.048434783,0.052273374,0.046117637
543.9847412,0.008964325,0.006768508,0.012980538,0.029315982,0.008080225,0.020771874,0.02978118,0.014295719,0.01403662,0.013677166,0.047887322,0.053999595,0.058188695,0.051953144
543.0053101,0.009076227,0.006987633,0.013090625,0.030495143,0.008614615,0.022823539,0.033659138,0.016766991,0.016285796,0.015915265,0.052814554,0.059599672,0.064488806,0.057696238
541.987915,0.009240008,0.007307919,0.013353137,0.031578343,0.009178374,0.024873482,0.037111338,0.019125519,0.018335337,0.017937856,0.05768808,0.06485644,0.070073508,0.063108787
541.0080566,0.009530577,0.007625149,0.013891012,0.032965511,0.009780143,0.026920507,0.040475279,0.021538215,0.020380894,0.019947225,0.062018503,0.069853999,0.075438507,0.068044953
539.9902954,0.009398216,0.007602809,0.013861854,0.034293532,0.010351039,0.029291252,0.044818483,0.024204683,0.022650899,0.02217859,0.06702368,0.07558506,0.081821524,0.073796399
539.0100098,0.009506366,0.007938867,0.01400256,0.036225982,0.011308135,0.032470811,0.050051544,0.027659932,0.025662398,0.025085894,0.073202439,0.082500175,0.089222401,0.080575868
537.9917603,0.00955029,0.008172536,0.014305778,0.038278665,0.012338022,0.036176037,0.056039542,0.031504106,0.028852832,0.028310288,0.079905227,0.089788564,0.097436458,0.087744378
537.0109863,0.009620472,0.008470073,0.014642004,0.040227037,0.01319623,0.03928538,0.061247885,0.034730583,0.031592235,0.03052444,0.085348032,0.095616572,0.103717342,0.093647555
535.9922485,0.009818428,0.008703765,0.015159551,0.042644452,0.014255084,0.042666812,0.067028724,0.038211472,0.034479856,0.033220649,0.091333754,0.101836376,0.110620394,0.099777423
535.0111084,0.00986964,0.009036976,0.015329316,0.045144323,0.015447645,0.046557628,0.072963275,0.041932687,0.037509836,0.036052067,0.097315215,0.108172186,0.117637284,0.105878338
533.9919434,0.009777151,0.0092252,0.015775898,0.048015989,0.016560117,0.050462969,0.079353631,0.045826651,0.040555388,0.038733475,0.103488341,0.11457599,0.124584556,0.112184167
533.0102539,0.010090918,0.009613326,0.016492246,0.050941437,0.017826589,0.054330375,0.085264392,0.04939251,0.043544807,0.041349337,0.108863853,0.120321117,0.130610436,0.117716573
531.9906006,0.010100827,0.010016501,0.016838107,0.054667104,0.019440863,0.05928883,0.092828266,0.054101441,0.04694023,0.044473071,0.115599982,0.12713486,0.138116151,0.124085099
531.0085449,0.010152045,0.01038325,0.017470263,0.058375169,0.021035185,0.063754983,0.099751823,0.058051798,0.050177164,0.047171768,0.121350586,0.132965416,0.144385532,0.129575312
529.9885254,0.010094441,0.010750416,0.017847301,0.0619727,0.022499377,0.068425037,0.106577739,0.061950069,0.053358112,0.049773525,0.126990572,0.138552129,0.150396258,0.134762496
529.0059814,0.010362465,0.011251096,0.018847682,0.065856233,0.023942698,0.072630666,0.112699337,0.065674052,0.056003846,0.051903956,0.131930426,0.143218458,0.155380637,0.139304966
527.9853516,0.010707803,0.011860774,0.019761395,0.070210256,0.025681457,0.077066727,0.11934118,0.069426559,0.058824319,0.054264903,0.136845738,0.147778466,0.160449967,0.143646359
527.0024414,0.010594791,0.0124533,0.020570952,0.074818954,0.027479295,0.082259975,0.126641884,0.073564582,0.061940875,0.056783408,0.142101675,0.152860746,0.165849105,0.148100242
525.9814453,0.010891205,0.013135927,0.021506444,0.079938926,0.029364754,0.087058216,0.133352235,0.077427961,0.064670853,0.058987699,0.146967366,0.157182917,0.170517311,0.152048662
524.9980469,0.010907901,0.013794938,0.022520587,0.084405445,0.031013483,0.091206536,0.139212191,0.080768876,0.066984661,0.060796607,0.150677398,0.16058737,0.174001426,0.154918641
524.0144043,0.011071339,0.014574057,0.023504311,0.089508094,0.032882381,0.096033551,0.14565593,0.084153816,0.06957721,0.062764406,0.154740691,0.164355531,0.178046212,0.158253223
522.9927368,0.011160996,0.015432115,0.024603313,0.094465561,0.034689676,0.100497305,0.15161483,0.087461039,0.07177455,0.064460792,0.158354014,0.16760169,0.181322008,0.161046103
522.008728,0.011341641,0.016413981,0.026002506,0.099401705,0.036409561,0.104723238,0.157088801,0.090482496,0.073962286,0.065979883,0.161499307,0.170311317,0.184305236,0.163543537
520.9864502,0.011479991,0.017338641,0.026948379,0.104501873,0.03814875,0.108657986,0.162324235,0.093180113,0.075817905,0.067288488,0.164248586,0.172798097,0.186784536,0.165569618
520.0020142,0.0116588,0.018544167,0.028202131,0.109585203,0.039832253,0.112813845,0.167517766,0.095792495,0.077682346,0.068711013,0.16714032,0.17506063,0.189341232,0.167488605
519.017395,0.011856863,0.01970272,0.029652867,0.114540435,0.041364342,0.116096191,0.171806976,0.098093569,0.079155661,0.069657549,0.169195965,0.176823288,0.191185206,0.168911994
517.9945679,0.011978932,0.020819044,0.030828916,0.118971854,0.042798828,0.118851692,0.175456435,0.099966809,0.080214873,0.070437402,0.170901477,0.178153336,0.192492262,0.17001234
517.0094604,0.012136731,0.021994825,0.032296747,0.123337656,0.044042151,0.121933684,0.179103807,0.10185843,0.081494533,0.071198717,0.172532365,0.179553062,0.193997309,0.171008915
515.9862061,0.012507834,0.023597721,0.033737805,0.128000915,0.045543421,0.124881133,0.182710514,0.103736736,0.082786649,0.072127864,0.1742374,0.18097505,0.19539237,0.172120825
515.0006714,0.012667636,0.025197035,0.035051409,0.132656142,0.046949863,0.127847299,0.186121151,0.105379202,0.083721556,0.072845615,0.175614104,0.182020918,0.196408153,0.172863886
514.0148926,0.012852695,0.026784806,0.036410857,0.136673406,0.048006564,0.130132407,0.189138278,0.106865645,0.084667347,0.07329087,0.176847398,0.182830155,0.197192609,0.173353061
512.9909668,0.013092733,0.028520269,0.03789144,0.140604243,0.049062453,0.132309616,0.191707552,0.108131938,0.085440017,0.073913366,0.177827418,0.183525652,0.197972268,0.173908532
512.0047607,0.013361786,0.030028153,0.039024815,0.143808901,0.04995491,0.134015471,0.193748698,0.109032646,0.086001359,0.074237868,0.178729445,0.18395336,0.198369741,0.17405954
511.0184326,0.013648422,0.031673171,0.040114965,0.14673841,0.050821852,0.135652974,0.195682392,0.110037699,0.086673111,0.074707918,0.179387599,0.184400022,0.198876619,0.174316168
509.9937744,0.013947223,0.033592545,0.041433677,0.149968967,0.051684376,0.137271598,0.197703987,0.110939704,0.087158471,0.074952811,0.180145681,0.184741676,0.199097812,0.174517989
509.0069885,0.014459339,0.035478469,0.042749181,0.153010503,0.052509934,0.138945326,0.199502006,0.112157591,0.087932035,0.07550925,0.180826172,0.185141131,0.199560851,0.174604476
507.9819946,0.014780472,0.037038486,0.043782815,0.155401185,0.053103741,0.140181288,0.201047465,0.112684272,0.088215768,0.075577945,0.181120098,0.185223922,0.19956544,0.174503595
506.994751,0.015093883,0.038710553,0.044832803,0.157552257,0.053651523,0.14119786,0.202345803,0.113292098,0.088540159,0.075866364,0.181417838,0.185405538,0.199717328,0.174607024
506.0073242,0.015480638,0.04044826,0.045394935,0.159316257,0.054050017,0.142096326,0.203457847,0.113949135,0.088921897,0.075946271,0.181834772,0.185439616,0.1997509,0.174530521
504.9816589,0.016064052,0.042182077,0.046634741,0.161239713,0.054614525,0.143324122,0.204916015,0.114546299,0.089376956,0.076154195,0.182223529,0.185493648,0.20002985,0.174444139
503.9937744,0.016610811,0.043880802,0.047633708,0.162988275,0.055107437,0.144385323,0.206239849,0.115160182,0.089749984,0.076437838,0.182379544,0.185630649,0.200085744,0.174457952
503.0057373,0.017115658,0.045625389,0.048383936,0.164599076,0.055612676,0.145392314,0.207365543,0.11570856,0.09010651,0.076624006,0.182588115,0.185745731,0.200048804,0.174295783
502.0174255,0.017512359,0.046963938,0.048827242,0.165865362,0.055874467,0.146019787,0.208143771,0.116137214,0.090240702,0.076627187,0.182711586,0.185684711,0.199874625,0.174169049
500.9908752,0.017993217,0.048307233,0.049399007,0.16707924,0.05627704,0.146795109,0.209201664,0.116601609,0.09050931,0.076742671,0.182825819,0.185480759,0.19976759,0.174059272
500.0021362,0.018808348,0.050035682,0.050169609,0.168513715,0.056694381,0.147825211,0.210365802,0.117176324,0.090872683,0.076943189,0.183060914,0.185599774,0.199791625,0.174029633
499.0132446,0.019359143,0.051373754,0.050782423,0.169660866,0.057218127,0.148584813,0.211321607,0.117593266,0.091103747,0.077093311,0.183352441,0.185508937,0.199920327,0.173976034
497.9861755,0.019920368,0.052669406,0.051269311,0.17077741,0.057423182,0.149348736,0.212211475,0.118027791,0.091242813,0.077178545,0.183253512,0.185479015,0.199742913,0.173809841
496.9968262,0.020506714,0.053619657,0.051746774,0.171758413,0.057583436,0.150086865,0.212951928,0.118334413,0.091403969,0.077132665,0.183446497,0.185325056,0.199706987,0.173775077
496.0072937,0.021153558,0.054678082,0.052264526,0.172837675,0.058049876,0.150764853,0.213902324,0.118705437,0.09179157,0.077368133,0.183447525,0.185391858,0.199751601,0.173676983
495.0175781,0.021774339,0.055657901,0.052516829,0.173950374,0.058387518,0.151541427,0.214698628,0.119143158,0.091945089,0.077486098,0.183568239,0.185500592,0.199775994,0.173641384
493.9895935,0.022425229,0.056845576,0.052827418,0.175199062,0.058880225,0.152544916,0.215711132,0.119668022,0.092341401,0.077749461,0.183894098,0.185669273,0.200191498,0.173915833
492.9994812,0.02296434,0.057674687,0.053206813,0.176194698,0.059125543,0.153146714,0.216408491,0.119948231,0.092378639,0.077767238,0.183852315,0.18562898,0.200131089,0.17381084
492.0091553,0.023538962,0.058337864,0.053534616,0.17693831,0.059245747,0.153655425,0.216902122,0.12012931,0.092415944,0.077539139,0.18395561,0.185571984,0.199984238,0.173748076
491.0186157,0.024177095,0.05903497,0.054262236,0.17807059,0.059790764,0.15431945,0.21767579,0.120600827,0.092674427,0.077812068,0.184184715,0.18569091,0.20005779,0.174051583
489.9897461,0.024787828,0.059897333,0.054350413,0.179297939,0.060006488,0.155110553,0.218616203,0.121098034,0.09298376,0.078057759,0.184470832,0.185936734,0.200510815,0.174144194
488.9988708,0.025302442,0.060567815,0.054738186,0.180280849,0.060393635,0.155941829,0.219370976,0.121387318,0.093186751,0.07818865,0.184646264,0.186207146,0.20078516,0.174382299
488.0076599,0.025886735,0.061089344,0.054978061,0.181080461,0.060581889,0.15649654,0.219974503,0.121666305,0.093271777,0.078208394,0.184783831,0.18626605,0.200757623,0.174534515
487.0163269,0.026580945,0.061757758,0.055590551,0.182284296,0.061085619,0.157198712,0.22085309,0.122074552,0.093596272,0.078381374,0.185094386,0.186663881,0.201191843,0.174976111
485.9866333,0.027090224,0.062404819,0.055809733,0.183699131,0.061444502,0.158000305,0.221934423,0.122634798,0.094017968,0.078801364,0.185610205,0.187250376,0.201917037,0.175515026
484.9949341,0.027409008,0.062890828,0.055895723,0.18484436,0.061695959,0.158922821,0.222777307,0.122992925,0.094239004,0.078940585,0.186115712,0.187632397,0.202411398,0.175809085
484.0029907,0.028055232,0.063487448,0.056758925,0.185746446,0.062111825,0.159462377,0.223444894,0.123492256,0.094430655,0.079000816,0.186542168,0.187917084,0.202629775,0.176402926
483.0108948,0.028411811,0.06382595,0.057132732,0.186981291,0.062415399,0.160098627,0.224269375,0.123850919,0.094687797,0.079262465,0.186862305,0.188481957,0.203156978,0.176911265
482.0185242,0.028862014,0.064516887,0.057426464,0.188112319,0.06291946,0.161102325,0.225334644,0.12453869,0.095078014,0.079667851,0.187578246,0.18922247,0.204022408,0.177585706
480.987854,0.029411867,0.065190449,0.057877976,0.189764544,0.063319162,0.16203557,0.226614595,0.125187799,0.095681384,0.080110915,0.188404664,0.190233067,0.205109,0.178540677
479.9950867,0.029454833,0.065389946,0.057784524,0.190564334,0.063451491,0.162679404,0.227393717,0.12547034,0.09578336,0.080224209,0.188809618,0.190680966,0.205625087,0.179060847
479.0021973,0.029744171,0.065942518,0.058205388,0.191842005,0.063760862,0.1634354,0.22833997,0.12593466,0.096165583,0.080524854,0.189627081,0.191409439,0.206461653,0.17987302
478.0090637,0.030169591,0.066544704,0.058710456,0.193254963,0.064293683,0.164461523,0.229709655,0.126726121,0.096699446,0.080961496,0.190431863,0.192437664,0.207550272,0.180849686
477.0157776,0.030493088,0.067149535,0.059078295,0.194402292,0.064539827,0.165307656,0.230767712,0.127282143,0.0971784,0.081326894,0.191349864,0.1932901,0.20865038,0.181840912
475.9839783,0.030817606,0.067818724,0.059701473,0.196016386,0.065184101,0.166533098,0.232240468,0.128183439,0.097811483,0.081962779,0.19235538,0.194721118,0.209936932,0.183111578
474.9903564,0.031192731,0.068480402,0.060208909,0.197561905,0.065628581,0.167693198,0.23373346,0.129023612,0.098503523,0.082399145,0.193672597,0.19595468,0.211473152,0.184396699
473.99646,0.031397793,0.069124602,0.06054588,0.198981106,0.066112548,0.168719173,0.235209882,0.129707858,0.099078603,0.08292342,0.194636777,0.197127685,0.212833554,0.185628742
473.0022888,0.031609274,0.069746688,0.061022427,0.200445429,0.066523194,0.169738919,0.236796707,0.130449429,0.09959998,0.083445534,0.195836455,0.198397413,0.214065865,0.186853275
472.0080261,0.03181066,0.07036943,0.061540507,0.201856867,0.066928484,0.17080453,0.238164336,0.131338701,0.10025245,0.083977394,0.197136611,0.19963935,0.215623975,0.188186809
471.0135498,0.032113086,0.071221866,0.062020205,0.203628466,0.067486227,0.172109127,0.239936039,0.132411048,0.101099148,0.084594965,0.198485225,0.20130536,0.217224196,0.189713255
470.0188293,0.032435607,0.072098285,0.062811486,0.205546424,0.068147093,0.173659369,0.242027104,0.133473083,0.101916269,0.085377842,0.200194493,0.202980012,0.219253361,0.191523969
468.9857483,0.032460935,0.072699122,0.063259564,0.207085773,0.06836313,0.174748406,0.243731186,0.134351015,0.102616295,0.085803017,0.201543063,0.20445621,0.220852837,0.192961425
467.9906921,0.033042822,0.073731147,0.063994139,0.209109858,0.069313675,0.176436141,0.245951533,0.135619789,0.103752218,0.086802199,0.203667074,0.206485719,0.222995058,0.194970205
466.9954224,0.033186,0.074381314,0.064477332,0.210725784,0.069680221,0.177664802,0.247518808,0.136652306,0.104456663,0.0873743,0.204861492,0.207915083,0.224599958,0.196521089
465.9999695,0.033587482,0.075408332,0.065147586,0.212858617,0.0705081,0.179216266,0.249937207,0.138012126,0.10551057,0.088353187,0.206850514,0.209926188,0.22685501,0.198448628
465.0043335,0.033919469,0.076289915,0.065768912,0.214825705,0.071226373,0.180880979,0.252197325,0.139218256,0.106508695,0.089126498,0.208704546,0.21193327,0.228921235,0.200410202
464.0084839,0.034099221,0.077159747,0.066533811,0.216724411,0.071730703,0.182471544,0.254472405,0.140497491,0.1074185,0.089901991,0.210469127,0.213992178,0.231209651,0.202391103
463.0125122,0.034401957,0.078079417,0.067032076,0.218578607,0.07236626,0.184081718,0.256677866,0.141757041,0.108336695,0.09078519,0.212504119,0.215833008,0.233145773,0.204187289
462.0162964,0.034485772,0.078835845,0.067506664,0.220647425,0.072899893,0.185607582,0.259068519,0.143039614,0.109349795,0.091590218,0.214068875,0.217911094,0.235341907,0.206116632
460.9815979,0.034943216,0.079960614,0.068328105,0.223073572,0.073639378,0.187786937,0.261745513,0.144656554,0.110681944,0.092673309,0.21658586,0.220354229,0.23813799,0.208616361
459.9849854,0.035492651,0.081171587,0.069272384,0.225402057,0.074524321,0.18964082,0.264465272,0.146183655,0.111788556,0.093643859,0.218960896,0.222569615,0.240529522,0.210844562
458.9882507,0.036055837,0.082537428,0.070449702,0.228161335,0.075533897,0.191792205,0.267504454,0.148042366,0.113359943,0.09487664,0.221385926,0.225246325,0.243433505,0.213416278
457.9913025,0.03633514,0.083493851,0.070861973,0.230440497,0.076230854,0.193712577,0.270271152,0.149658114,0.114588626,0.095978014,0.223611772,0.227552593,0.24615261,0.215571716
456.9941101,0.03680671,0.084657282,0.071754552,0.232776105,0.077118784,0.195726588,0.273307562,0.15122883,0.115726911,0.096981913,0.226023391,0.229996488,0.248820767,0.217952132
455.9968262,0.037192859,0.085894972,0.072442286,0.235350221,0.077848151,0.198006094,0.276364595,0.153047875,0.117152728,0.098142013,0.228438571,0.232675985,0.251454234,0.220485985
454.9993286,0.037690826,0.087137967,0.073321603,0.238247439,0.078679226,0.200333864,0.279644817,0.154822394,0.118570216,0.09931691,0.231135547,0.235399276,0.254496217,0.223083049
454.0015869,0.038177691,0.088474743,0.074257068,0.241207451,0.079806663,0.202791482,0.283077836,0.156907275,0.119923048,0.100798935,0.233877406,0.238292739,0.25769493,0.22583285
453.0037231,0.038705401,0.089837015,0.075290494,0.243786991,0.080659643,0.205117181,0.28619647,0.15866667,0.121399745,0.101826787,0.236333177,0.24087809,0.260237038,0.228308797
452.0056763,0.039085537,0.090988502,0.076020956,0.246278241,0.081422895,0.207183227,0.289054453,0.160352856,0.122560471,0.102831945,0.238709509,0.243091807,0.2628631,0.230385974
451.0074158,0.03968301,0.092575647,0.077082895,0.249385387,0.082538523,0.209645584,0.292605907,0.162466064,0.124200821,0.104125433,0.2413003,0.245912463,0.26585263,0.233106315
450.0089417,0.040297356,0.094104186,0.078130201,0.252425164,0.08369939,0.21236822,0.296136439,0.164465711,0.125858456,0.105421767,0.244200409,0.248603001,0.268854916,0.235718533
449.0103455,0.04083271,0.095604345,0.079098634,0.255674452,0.084679961,0.215090051,0.299676985,0.16662845,0.127466515,0.106800854,0.246927947,0.251379758,0.271748543,0.238292024
448.0115051,0.041305322,0.097082347,0.080099367,0.258854598,0.085614607,0.217470944,0.303093106,0.168470293,0.128814653,0.10795825,0.24945195,0.253920734,0.274547845,0.240711972
447.0125427,0.041890379,0.098326169,0.081100538,0.261420727,0.086542197,0.21993129,0.306159109,0.170251593,0.130185425,0.108953834,0.251856446,0.25636813,0.277062655,0.243058324
446.0133667,0.042567182,0.099986784,0.082221746,0.265000165,0.087804765,0.222578645,0.310021818,0.172431544,0.131754383,0.110398173,0.254681885,0.259191483,0.280377984,0.245765001
445.0140381,0.043265577,0.101646371,0.083304867,0.268476963,0.088978767,0.225494057,0.31394428,0.174669564,0.133382529,0.111752264,0.257484138,0.262308329,0.2833772,0.248621121
444.0144653,0.043843575,0.103336237,0.084348828,0.271903694,0.090016887,0.22823742,0.317847967,0.176701009,0.135064527,0.11307025,0.260375202,0.265318662,0.286439747,0.251274765
443.0147705,0.044464067,0.105032995,0.085425332,0.275534004,0.091319412,0.231183946,0.32182458,0.178983629,0.13663578,0.114446931,0.263501525,0.268349111,0.28964901,0.254184753
442.0149231,0.045182869,0.106757067,0.086698741,0.279051036,0.092347801,0.234013647,0.325584471,0.181220979,0.138337314,0.115820482,0.266275048,0.271184176,0.2927939,0.256933451
441.0148315,0.045867302,0.108281158,0.087986931,0.282528043,0.093561687,0.236972809,0.329609662,0.183413014,0.140013427,0.117186867,0.269233793,0.274007887,0.295870423,0.25985235
440.0145874,0.046536103,0.110199548,0.08905948,0.286396146,0.094822504,0.239826888,0.333565444,0.185648426,0.141753957,0.118613623,0.272156239,0.276969791,0.299234062,0.262720972
439.0141602,0.047183048,0.111864641,0.090122059,0.290018231,0.095924124,0.242745668,0.337789148,0.187996805,0.143421099,0.119970173,0.275155664,0.280250698,0.302528739,0.26571244
438.0135803,0.048002429,0.113625452,0.091452919,0.293734968,0.097144693,0.245713085,0.341908991,0.190301582,0.145285428,0.121478863,0.278366149,0.283398062,0.305978954,0.268820137
437.0127563,0.048838422,0.115536541,0.092608295,0.297633559,0.09853074,0.248998329,0.34625423,0.192810804,0.147035852,0.12305364,0.281675279,0.28671363,0.309415162,0.271965802
436.0117798,0.049512748,0.117335737,0.093883343,0.301766902,0.099863097,0.252266228,0.350755066,0.195279986,0.149050251,0.124492623,0.284973383,0.290083259,0.313014716,0.275207579
435.0106201,0.050401419,0.119489521,0.095299266,0.305881798,0.101155669,0.255427629,0.355168879,0.197628737,0.15098986,0.12610738,0.288421243,0.293646336,0.31663999,0.278641015
434.0093689,0.051314671,0.121597149,0.096660733,0.310209334,0.102734596,0.259022832,0.35978049,0.20049718,0.15293105,0.127863944,0.291824371,0.297483176,0.320811242,0.282262892
433.0078125,0.05199758,0.123635799,0.09807618,0.314470321,0.104029708,0.262369305,0.364738226,0.202995539,0.154895082,0.129368708,0.295431435,0.300859869,0.324546903,0.285645157
432.0061646,0.052889779,0.1258699,0.099634066,0.319047689,0.105551206,0.266047567,0.369777262,0.205915287,0.156978548,0.13117145,0.299146026,0.304742962,0.328575373,0.289505035
431.0042725,0.053948417,0.128198564,0.10100653,0.32378763,0.107239194,0.269928366,0.375025302,0.208879203,0.1591627,0.133100092,0.303287864,0.308832228,0.332918227,0.293384969
430.0022888,0.054876566,0.130482644,0.102594294,0.328345895,0.108688109,0.273504704,0.380059719,0.211599425,0.161338985,0.134758756,0.306990653,0.312644392,0.336991459,0.296899289
429.0000916,0.055674881,0.132463545,0.103936009,0.333067089,0.110227376,0.277252644,0.385029346,0.21461007,0.163442493,0.136697054,0.310802549,0.316814542,0.341135085,0.300855398
427.9976807,0.05667872,0.134968609,0.105568633,0.337696761,0.111912072,0.281153262,0.390370339,0.217548266,0.165804014,0.138438851,0.314885765,0.320760608,0.345339984,0.304583967
426.9951477,0.057664398,0.137401372,0.107267663,0.342728972,0.113605276,0.285132617,0.395971119,0.220776394,0.168220654,0.140430808,0.318978578,0.324946433,0.349801272,0.308632642
425.9924316,0.058682721,0.13991116,0.109009162,0.34801048,0.115283407,0.289358825,0.401676774,0.224047095,0.170662433,0.142405331,0.323326409,0.329162061,0.354553342,0.312728643
424.989563,0.059673615,0.142237172,0.110589534,0.353065729,0.116874218,0.293441773,0.407129973,0.2270087,0.172880575,0.144188315,0.32708028,0.333286136,0.358709872,0.316455662
423.9864807,0.060732238,0.144652396,0.112304837,0.358151496,0.118417598,0.297435015,0.412573099,0.230039358,0.175249904,0.146170646,0.331189752,0.337362468,0.36294052,0.320462704
422.9832153,0.061726842,0.147095054,0.113702804,0.363273323,0.120197482,0.301577419,0.418408513,0.233183593,0.17762892,0.14814058,0.335232079,0.34151873,0.367433965,0.324436814
422.0184021,0.062768593,0.149870187,0.115709476,0.368861437,0.122165829,0.306017935,0.424561679,0.236799479,0.180316642,0.150337815,0.339955211,0.346105695,0.372250497,0.32874009
421.014801,0.063922755,0.152518541,0.117474064,0.374600321,0.124034599,0.310489148,0.430815548,0.24030371,0.182854012,0.152398005,0.344394982,0.350633174,0.377134115,0.333176523
420.0110779,0.065118328,0.155278802,0.119540654,0.380199522,0.125848219,0.315108746,0.436640114,0.243626297,0.185433582,0.154713482,0.348945677,0.355177075,0.381953448,0.337394893
419.0072021,0.066253066,0.158057183,0.121451095,0.38604033,0.127891854,0.319619417,0.443127632,0.247415751,0.18811439,0.15673624,0.353494197,0.359857619,0.386667371,0.341729343
418.0030823,0.067469083,0.16087848,0.123261638,0.391853035,0.129784957,0.32439363,0.449338228,0.250780314,0.190761998,0.158980683,0.358029425,0.364288032,0.39138782,0.346038759
416.9988098,0.068470009,0.163775295,0.124966726,0.398040563,0.131559432,0.329145163,0.456178814,0.254540622,0.193413004,0.161049485,0.36287871,0.369105905,0.396496475,0.350362271
415.9943848,0.069892161,0.167248428,0.127413914,0.404992878,0.133903906,0.335060418,0.463846773,0.258702785,0.196711347,0.163792804,0.36835146,0.374581128,0.402233303,0.355464637
414.9898376,0.071142666,0.170452461,0.129614562,0.411627084,0.136095092,0.340006322,0.471021295,0.262827516,0.19961758,0.16621697,0.373277605,0.379693538,0.407377839,0.360166848
413.9850464,0.072483577,0.173619568,0.131604105,0.41810739,0.138206422,0.345093757,0.47782597,0.266765744,0.202569932,0.168621257,0.378173083,0.384450883,0.412656039,0.365086138
413.0187073,0.073739581,0.176604748,0.133734524,0.424244285,0.140299708,0.349912763,0.484576583,0.270552754,0.205346137,0.170844689,0.382964432,0.389398694,0.417566508,0.369358093
412.0136108,0.075065352,0.180212125,0.135993749,0.431410611,0.142582402,0.355866522,0.492576182,0.274931252,0.20859322,0.173535183,0.38841784,0.394748598,0.423347116,0.374548256
411.0083923,0.076538168,0.183810726,0.13830255,0.439572722,0.145106345,0.361821085,0.500896037,0.279385418,0.212020069,0.176330581,0.394233912,0.400546044,0.429274023,0.379925132
410.0028992,0.07804165,0.187341094,0.140602782,0.446096093,0.147429958,0.367225766,0.507800341,0.283409417,0.215091661,0.178790972,0.399544746,0.405637384,0.434855968,0.384553671
408.9973145,0.079247206,0.190614909,0.143092051,0.453868985,0.149674013,0.372959048,0.515673459,0.287724435,0.218114987,0.181315094,0.404671758,0.410987198,0.440332323,0.389411569
407.9915466,0.080717742,0.194393143,0.145501196,0.461243391,0.152190164,0.379032999,0.523702681,0.292191237,0.221462563,0.183961079,0.410326004,0.416560203,0.446150482,0.394628912
406.9856567,0.082395613,0.198673457,0.148308709,0.469849676,0.15501532,0.385628402,0.533062875,0.297277212,0.225235149,0.186844632,0.416497976,0.422472984,0.452523768,0.400653005
406.0182495,0.084117778,0.203057721,0.151146963,0.479057342,0.157967523,0.392754674,0.542826235,0.302672088,0.229147092,0.189940408,0.423175335,0.429217041,0.459623754,0.406641722
405.0119324,0.086093888,0.207725227,0.154268116,0.487835139,0.161011115,0.399914056,0.552130282,0.308206588,0.233361021,0.193389535,0.429845512,0.435568839,0.466118634,0.412680209
404.0055847,0.087611683,0.211378723,0.156827927,0.496161461,0.163472056,0.405986667,0.560196638,0.312378317,0.236452922,0.195838243,0.435420692,0.441216558,0.472243369,0.417818248
402.9989624,0.089163847,0.215747669,0.159447134,0.50454092,0.166147023,0.412834704,0.569243789,0.317723095,0.240265638,0.198663071,0.441631585,0.447241694,0.47833097,0.423565835
401.9921875,0.091150783,0.220550418,0.162586346,0.514412999,0.169479176,0.42058301,0.579687178,0.323388517,0.244475395,0.202373564,0.448435277,0.4540779,0.485853523,0.430253565
400.9852905,0.093342952,0.225979999,0.166243881,0.525684476,0.173100665,0.429072321,0.591522455,0.329625189,0.249200732,0.205867961,0.456774265,0.461758226,0.49415201,0.437108308
400.0169373,0.095242083,0.230649486,0.169382438,0.53521198,0.17601426,0.436314732,0.601361632,0.334825635,0.252971977,0.208910316,0.463279754,0.468448609,0.500824332,0.443388194
399.0096741,0.097286969,0.23560372,0.172507793,0.544907451,0.179357246,0.443638355,0.611504078,0.340379387,0.257076681,0.212251604,0.469884604,0.475061327,0.507909954,0.449622959
398.0023193,0.099071741,0.240618497,0.175722763,0.554801881,0.182403311,0.451136053,0.622075796,0.345916897,0.261098921,0.215425789,0.476524591,0.48176688,0.514626443,0.455876559
396.994751,0.101377301,0.246098921,0.179239303,0.566420674,0.186026871,0.459940463,0.633422971,0.352386504,0.265826345,0.219108045,0.484419316,0.489349216,0.522848845,0.463285208
395.98703,0.10381534,0.252375394,0.183411002,0.579102397,0.189940766,0.469857931,0.64724195,0.359297752,0.271091104,0.223144487,0.493247181,0.497963518,0.531928003,0.471240223
395.0179443,0.106036559,0.258116126,0.186953068,0.58991605,0.193616882,0.47811228,0.658474207,0.365617186,0.275737137,0.22676903,0.500695944,0.50574708,0.539782405,0.478482723
394.0098877,0.108328752,0.263067752,0.190360725,0.600271702,0.197104976,0.486368686,0.669395149,0.371281385,0.280085504,0.230275244,0.50793767,0.512317419,0.54710412,0.484830082
393.001709,0.110787638,0.26944375,0.194209233,0.612602055,0.2008439,0.495061368,0.681979239,0.377794713,0.284749061,0.234139755,0.516072035,0.520067811,0.555719852,0.492431015
391.9933472,0.113092825,0.275564432,0.198384464,0.625264347,0.204599947,0.504764617,0.694758236,0.384901643,0.290008426,0.238052398,0.525140047,0.528875649,0.564346731,0.500200868
390.9848022,0.115972802,0.282080501,0.202564925,0.638178289,0.208979458,0.514361322,0.708230317,0.391794384,0.295141012,0.242007583,0.533879161,0.537154257,0.573340297,0.508071125
390.0149231,0.118738137,0.288953185,0.207236752,0.652149797,0.213218689,0.524759293,0.722337723,0.399569869,0.30076164,0.246392399,0.543102801,0.546418369,0.582891822,0.516706944
389.0061035,0.121334598,0.295750767,0.211621627,0.6657058,0.217417389,0.534537971,0.736067891,0.406697869,0.305932045,0.250748485,0.551947236,0.554802179,0.592049182,0.524853528
387.9971313,0.124011315,0.302224994,0.215566903,0.678433895,0.221387863,0.544864476,0.749931753,0.414163858,0.311474472,0.254588395,0.560384214,0.563720524,0.600930154,0.53261435
386.9879761,0.127011344,0.309568614,0.220277876,0.692977786,0.226110727,0.55616945,0.764630437,0.421923131,0.317174435,0.259428442,0.570257008,0.57306993,0.611143112,0.541633189
386.0174866,0.130135402,0.317407429,0.225405365,0.708567321,0.230974346,0.567768335,0.781079769,0.430398583,0.323314756,0.263942808,0.581069291,0.582774937,0.621997654,0.551074326
385.0080261,0.13337253,0.324577451,0.23051624,0.723581255,0.235811055,0.579313874,0.795541883,0.438868344,0.329446703,0.269063979,0.590917826,0.592710137,0.632351816,0.560154557
383.9984741,0.136297837,0.331834912,0.235056773,0.737980604,0.240164504,0.589771152,0.809604526,0.446126878,0.335620284,0.273660094,0.601173699,0.60204345,0.642403364,0.569091678
382.988678,0.13932623,0.338826537,0.239699528,0.751615107,0.244440794,0.599835932,0.824042678,0.453852415,0.340742767,0.278018564,0.609983742,0.610765338,0.651829541,0.577588201
382.0175781,0.142798692,0.347149998,0.24486348,0.768098295,0.249828652,0.611809552,0.84055233,0.46241799,0.347703934,0.283195108,0.621051014,0.621067524,0.662875176,0.587461293
381.0075378,0.146348968,0.356134564,0.250529289,0.785679042,0.255388886,0.625746191,0.858228266,0.472115189,0.354481697,0.288826764,0.633737505,0.633194089,0.675003588,0.598157466
379.9973145,0.150082514,0.364701062,0.256325781,0.80206722,0.260884076,0.638562381,0.874980807,0.481471092,0.361932516,0.294277102,0.645360887,0.643754244,0.687126935,0.608745873
378.986908,0.153984428,0.37416485,0.262204111,0.819700301,0.266711921,0.651978433,0.893231571,0.490871042,0.369335145,0.30014202,0.65745014,0.65533793,0.698853254,0.619585156
378.0152283,0.156971112,0.381090373,0.266967893,0.83496505,0.271254122,0.66324085,0.908325613,0.499514848,0.375571579,0.305096656,0.667972505,0.66540736,0.709664881,0.629196882
377.0045471,0.160673216,0.38974157,0.272833526,0.851226568,0.276684374,0.675329447,0.924360275,0.508358479,0.382015199,0.310437828,0.678961575,0.676540792,0.721781373,0.639325917
375.9937134,0.165174618,0.399871796,0.279732704,0.871098161,0.283469468,0.690636098,0.944611728,0.519456208,0.390439898,0.316965014,0.693337619,0.689698517,0.735554934,0.651215732
374.9827576,0.169546023,0.410076052,0.286626875,0.890053093,0.289757341,0.704777837,0.96338129,0.529952407,0.398504615,0.323646247,0.706592679,0.702948928,0.748752594,0.663877666
374.010498,0.173092499,0.419013828,0.291985631,0.907797933,0.295381129,0.717660904,0.980747104,0.539480329,0.405727565,0.328822702,0.719471455,0.714219987,0.760661662,0.674306035
372.999176,0.17688182,0.427716345,0.298162669,0.924317598,0.301155418,0.731177986,0.999164283,0.549426496,0.413231343,0.334960491,0.731741667,0.725891352,0.773594677,0.685507596
371.9877625,0.181558743,0.438643992,0.305313259,0.945379555,0.308128744,0.747220814,1.019346356,0.561199009,0.422117353,0.341877669,0.746532738,0.73954165,0.788169026,0.69894886
371.0150757,0.185860202,0.44866693,0.311595231,0.964947105,0.314127475,0.761909306,1.037994027,0.57172209,0.430250019,0.34814778,0.759725452,0.75165844,0.801209748,0.710430682
370.0033264,0.190437168,0.458999425,0.318854183,0.984655142,0.32109037,0.776759327,1.058025002,0.582953155,0.438674063,0.354795933,0.77411741,0.765292704,0.814804375,0.723050475
368.9914856,0.194673732,0.469238073,0.325261027,1.002941608,0.327053845,0.790784121,1.076455116,0.594181597,0.447101116,0.361100078,0.787932456,0.778083205,0.82914722,0.735515773
368.0183411,0.198798254,0.479229361,0.331457913,1.022561908,0.333377987,0.804869771,1.09428215,0.603198111,0.454502404,0.366746992,0.801217377,0.7900123,0.841861546,0.746405125
367.0061646,0.203541592,0.489484638,0.338718683,1.042136192,0.340462655,0.82020545,1.115751028,0.614706338,0.46298328,0.373925149,0.815441132,0.803689003,0.856344223,0.75949508
365.9938049,0.20867306,0.501842558,0.346323967,1.065082788,0.347432196,0.83795625,1.137418628,0.627264142,0.472890645,0.38135913,0.830364823,0.817999125,0.872625947,0.773105919
364.9813538,0.213901982,0.513950765,0.354631811,1.087842226,0.355359733,0.855197847,1.160965681,0.639988124,0.482250899,0.388538718,0.846908331,0.832983732,0.887315393,0.787757337
364.0076294,0.218863577,0.524897993,0.362211853,1.10935843,0.361933082,0.871148944,1.181394815,0.652534962,0.491144866,0.395640791,0.861301601,0.846758187,0.902385771,0.800559342
362.994873,0.22340022,0.536555946,0.369557917,1.130781293,0.369525284,0.887764692,1.203553557,0.664129674,0.500598788,0.402874082,0.8764081,0.861210823,0.917976439,0.814237177
361.9819641,0.228688359,0.547448516,0.377721727,1.151454568,0.376499325,0.904191732,1.22497654,0.676180542,0.50924778,0.409443945,0.891730011,0.875352264,0.931603134,0.826980412
361.0078735,0.233912319,0.559871256,0.385331094,1.174362183,0.384155303,0.921405554,1.247187495,0.688421726,0.517929018,0.416621566,0.906163931,0.890034199,0.948035002,0.840573669
359.9946594,0.239959076,0.574208438,0.394817084,1.201407433,0.392621934,0.941272199,1.273545742,0.702730715,0.529282689,0.42534709,0.924900651,0.906542659,0.965241492,0.856485248
358.9812927,0.245872602,0.589140296,0.40417701,1.22929275,0.401147008,0.961258113,1.300147057,0.717644036,0.540589571,0.433744848,0.942371309,0.924126983,0.984846234,0.872867703
358.0067749,0.251281232,0.600411832,0.412023813,1.251069903,0.40875119,0.978478432,1.323346257,0.730513692,0.550045848,0.441365421,0.95882386,0.939305067,1.000327945,0.886843205
356.9931335,0.257153481,0.613960743,0.420805067,1.276938677,0.416732878,0.99673897,1.34711051,0.742797732,0.560130596,0.449377209,0.975477874,0.954892993,1.01546669,0.902097106
356.0183716,0.263067573,0.628841162,0.430333525,1.305689573,0.426103443,1.01890409,1.377542973,0.758502066,0.571706057,0.458009213,0.994060576,0.971859634,1.03508985,0.918323875
355.004425,0.269619107,0.644668996,0.440221429,1.335779071,0.435039878,1.039764166,1.404872894,0.774522781,0.58325094,0.467271149,1.012642145,0.991190672,1.05483079,0.936064184
353.9903564,0.275534451,0.658992648,0.448888302,1.361459017,0.443953276,1.060997009,1.432456613,0.7891469,0.594337761,0.475922465,1.032128215,1.007659197,1.07314837,0.952049017
353.0151367,0.28149721,0.671658576,0.45726347,1.383716345,0.451810449,1.078093648,1.45573926,0.802759528,0.604792118,0.483339399,1.048339367,1.02332747,1.088856101,0.967374921
352.0007629,0.288164288,0.68808794,0.468727529,1.417802691,0.462332696,1.102012038,1.487411141,0.820417881,0.617542863,0.494256407,1.069702744,1.043336153,1.110573888,0.987240374
350.9862976,0.295565516,0.705251992,0.479176641,1.449050784,0.472293705,1.126908183,1.520235658,0.837974191,0.630353034,0.504240632,1.091415405,1.064161062,1.132629871,1.005961061
350.0107117,0.302091986,0.721533597,0.489563495,1.478689551,0.482337862,1.149599791,1.548037648,0.855071485,0.642663837,0.513635457,1.111765385,1.082833409,1.154186845,1.024989605
