Wavelength (nm),30 s,60 s,90 s,120 s,150 s,180 s,210 s,240 s,270 s,300 s,330 s,360 s,390 s,420 s,450 s,480 s,570 s,600 s
650.0166626,-0.006191788,-0.00269088,-0.004691253,-0.005700106,-0.005010927,0.006020183,-0.004859004,-0.007333357,-0.003697762,-0.008420345,0.001040437,-0.001959489,-0.004777441,0.000247074,-0.005463258,-0.001125099,0.000555868,0.000322322
648.9905396,-0.006236241,-0.002522599,-0.004669435,-0.005518878,-0.004921561,0.00596966,-0.00484175,-0.007144254,-0.003418781,-0.0083073,0.00073537,-0.001852739,-0.004730841,0.000140584,-0.005253238,-0.001122362,0.000670939,0.000293465
648.0008545,-0.006073208,-0.002487236,-0.004384466,-0.005649926,-0.004675632,0.006050604,-0.004637679,-0.007056447,-0.003436142,-0.008227602,0.000677913,-0.001600476,-0.004532712,0.000386416,-0.005190013,-0.000690348,0.000922001,0.000613698
647.0108643,-0.006027513,-0.002229675,-0.004297943,-0.005608326,-0.004647462,0.006140964,-0.004697707,-0.006982428,-0.003365562,-0.007982573,0.000634825,-0.001781025,-0.004283949,0.000520568,-0.005122276,-0.00067665,0.0008446,0.00076672
645.9838867,-0.006077956,-0.002533871,-0.00399098,-0.005528233,-0.004716656,0.006023359,-0.004709742,-0.006951706,-0.003449394,-0.008111252,0.000507195,-0.001816961,-0.00446518,0.000434143,-0.00500847,-0.000756195,0.000903687,0.000666454
644.9933472,-0.006081223,-0.002363315,-0.003248931,-0.005428287,-0.004638191,0.006200382,-0.004580613,-0.006999088,-0.003329395,-0.007991213,0.000419011,-0.001547395,-0.004302096,0.000612246,-0.004990864,-0.000554641,0.000923038,0.000849191
644.0025024,-0.00609077,-0.002367537,-0.002950533,-0.005461162,-0.004814307,0.006233101,-0.004403787,-0.0067867,-0.003334275,-0.008024353,0.000145918,-0.001613938,-0.004363861,0.000699562,-0.004804988,-0.000478523,0.001202202,0.000747375
643.0113525,-0.006233077,-0.002577001,-0.004248883,-0.005705522,-0.00499025,0.006033516,-0.004614782,-0.007098061,-0.003555701,-0.008264633,-0.000369908,-0.001670312,-0.004482704,0.000343125,-0.00516382,-0.000611617,0.000990464,0.000725024
641.9832153,-0.005875996,-0.002326085,-0.004373907,-0.005414227,-0.00479101,0.006385462,-0.004405017,-0.006787566,-0.003366333,-0.00793596,-0.000327696,-0.001480532,-0.004180948,0.00070034,-0.004618367,-0.000210868,0.000968048,0.00107046
640.9914551,-0.00598452,-0.002402086,-0.004493157,-0.005411977,-0.004903542,0.006164541,-0.00454096,-0.007005659,-0.003321123,-0.008142808,-0.000737899,-0.001550078,-0.004409886,0.00061248,-0.004809955,-0.000291947,0.001076429,0.000856868
639.9995117,-0.005797537,-0.002308473,-0.004348741,-0.005445824,-0.004809085,0.0063059,-0.004296765,-0.006822733,-0.003397874,-0.00803406,-0.000800226,-0.001540637,-0.004149104,0.000729821,-0.004570726,-0.000210454,0.001046665,0.001015736
639.0072021,-0.005969303,-0.002176465,-0.004176487,-0.005387229,-0.00455674,0.00649749,-0.004023194,-0.006742864,-0.003186441,-0.007865701,-0.000713814,-0.001226452,-0.003984362,0.000852355,-0.004267493,-1.98E-05,0.001206926,0.001150964
638.0147095,-0.005940961,-0.002243891,-0.004372575,-0.005317068,-0.004549414,0.00627869,-0.004135156,-0.006682353,-0.003168659,-0.007857363,-0.000837897,-0.001277404,-0.003999701,0.000858346,-0.003996366,-6.18E-05,0.001241607,0.001090832
636.9851074,-0.005983243,-0.002174868,-0.00434951,-0.005384007,-0.004658116,0.006279111,-0.00438016,-0.006700757,-0.002947705,-0.00780433,-0.000890496,-0.001158094,-0.003879751,0.00085264,-0.003933933,-0.000161654,0.001106844,0.001248046
635.9919434,-0.005738835,-0.002165905,-0.004170128,-0.005340848,-0.004460516,0.006425236,-0.004028324,-0.006644778,-0.003000049,-0.007776056,-0.000772216,-0.001101964,-0.003891399,0.001011351,-0.004091924,-1.94E-05,0.001486142,0.001397708
634.9985962,-0.005704704,-0.002070799,-0.004245807,-0.005228788,-0.004465487,0.006650207,-0.004072896,-0.006557176,-0.002848038,-0.007581194,-0.000582406,-0.000874737,-0.003814888,0.000921482,-0.004039301,0.000185357,0.001523937,0.001422016
634.0048218,-0.005845452,-0.002299049,-0.004187716,-0.005306584,-0.004574056,0.006504742,-0.004094488,-0.006555748,-0.002775511,-0.007772649,-0.000666363,-0.001086265,-0.003885344,0.001056266,-0.004244884,0.000200922,0.001491753,0.001493571
633.0109253,-0.005686156,-0.002261866,-0.004128387,-0.005132202,-0.004365245,0.00662797,-0.003823151,-0.006464455,-0.002518584,-0.007601645,-0.000618441,-0.000961737,-0.003768647,0.001092804,-0.004317218,0.000429894,0.001360807,0.001580051
632.0166626,-0.005662241,-0.002106299,-0.003947323,-0.005115982,-0.004366373,0.006852415,-0.003237164,-0.006221339,-0.002372635,-0.007495968,-0.000450131,-0.000595745,-0.003690062,0.001298697,-0.004281385,0.000568828,0.001806944,0.001847653
630.9852905,-0.005509677,-0.00207353,-0.003972666,-0.005079346,-0.004314552,0.006708512,-0.002943179,-0.006363398,-0.002441986,-0.00752253,-0.00047392,-0.000766118,-0.003713932,0.001365974,-0.004375445,0.000513674,0.001754986,0.002099864
629.9905396,-0.005586809,-0.001877638,-0.004114592,-0.005210219,-0.004349254,0.006671999,-0.002444303,-0.006317887,-0.002340813,-0.007525125,-0.000466525,-0.000616632,-0.003664908,0.001343643,-0.0042759,0.00071963,0.001754206,0.001947516
628.9954224,-0.005757432,-0.00204519,-0.004214122,-0.005201267,-0.004483165,0.006661852,-0.002540048,-0.006330082,-0.002291067,-0.007387008,-0.000645065,-0.000810509,-0.003718398,0.001284314,-0.004316244,0.000632129,0.001972349,0.001995467
628.000061,-0.005624373,-0.00197526,-0.003951222,-0.005169345,-0.004323523,0.006863171,-0.002476323,-0.006376867,-0.002082032,-0.007291409,-0.000361321,-0.000523306,-0.003559192,0.00147635,-0.004291433,0.000842317,0.00204449,0.002170933
627.0043945,-0.005463974,-0.001912844,-0.003815196,-0.00506118,-0.004319268,0.006946913,-0.002532327,-0.006148964,-0.00189135,-0.007178476,-0.000297224,-0.000356097,-0.003285106,0.001658623,-0.004060227,0.001024324,0.00213701,0.002256247
626.0084839,-0.00552992,-0.001957995,-0.003914026,-0.005186278,-0.004163719,0.006991841,-0.002854724,-0.006091025,-0.001866761,-0.007247828,-0.000148457,-0.000338094,-0.003318605,0.001789633,-0.004117617,0.000950848,0.002089876,0.002327602
625.0123291,-0.00552215,-0.002033905,-0.003792769,-0.005275692,-0.00422776,0.006910958,-0.002986475,-0.006227207,-0.001781799,-0.007242584,-0.000226961,-0.000319108,-0.003363045,0.001691391,-0.004096847,0.001046639,0.002242873,0.002307225
624.0158081,-0.005393825,-0.001806598,-0.003478515,-0.004945158,-0.003941372,0.007115945,-0.002856216,-0.005823743,-0.001547705,-0.007000004,0.000174947,-2.56E-05,-0.003144965,0.001918187,-0.003863844,0.001391864,0.002495913,0.002738264
622.9821777,-0.005370815,-0.001849801,-0.003579372,-0.004892638,-0.004010935,0.00708066,-0.002975934,-0.005776693,-0.001562304,-0.006910181,0.000183855,-0.000150941,-0.003067501,0.001976458,-0.003893041,0.001459571,0.002254296,0.002758427
621.9852295,-0.005323307,-0.002028701,-0.003563352,-0.004977096,-0.004149976,0.007125997,-0.002972695,-0.005905262,-0.001553586,-0.006963782,0.000396858,-0.000140331,-0.003030331,0.00197651,-0.003878109,0.001460402,0.002455404,0.002769368
620.987854,-0.005569533,-0.001981342,-0.003619575,-0.00507075,-0.004084897,0.00713976,-0.003035215,-0.005965166,-0.001744365,-0.006980951,0.000199238,-0.00010524,-0.002959069,0.001881709,-0.003982157,0.001347226,0.00250677,0.002721045
619.9903564,-0.005303668,-0.0016847,-0.003371829,-0.004869345,-0.003655924,0.007339958,-0.002876325,-0.005671797,-0.001272087,-0.006571199,0.000565122,0.000252358,-0.002280973,0.002113703,-0.003542452,0.001796131,0.002702551,0.003235655
618.9924927,-0.005203569,-0.001764629,-0.003396949,-0.004883372,-0.003688625,0.007293098,-0.002767177,-0.005811023,-0.001470626,-0.006694742,0.00057212,0.000179556,-0.002073994,0.002294994,-0.003407788,0.001944812,0.002865196,0.003295955
617.9944458,-0.005036771,-0.001739156,-0.003038506,-0.004775905,-0.003564019,0.007662823,-0.002749943,-0.00547246,-0.001420419,-0.006521273,0.00069938,0.00043207,-0.001891195,0.00255309,-0.00338873,0.001999706,0.002965503,0.003369307
616.9960327,-0.004987486,-0.001628845,-0.003101428,-0.004827722,-0.003546304,0.007443673,-0.00290564,-0.005539785,-0.001312298,-0.006508778,0.000716726,0.000460989,-0.002037667,0.002579598,-0.003445131,0.002124316,0.002823038,0.003398578
615.9974365,-0.005094134,-0.001582628,-0.003025396,-0.004643057,-0.003517546,0.007341748,-0.002770366,-0.005535849,-0.001178024,-0.00623721,0.000812621,0.000330068,-0.002093521,0.002513149,-0.003271695,0.002128556,0.003067605,0.003397378
614.9984741,-0.005083542,-0.001544352,-0.002842174,-0.004716604,-0.003506608,0.007430217,-0.002593007,-0.005310521,-0.001120658,-0.006311203,0.001040126,0.000560586,-0.002400953,0.002589103,-0.003263319,0.002351286,0.003073027,0.00359625
613.9992676,-0.00489658,-0.001527585,-0.002968941,-0.004539475,-0.003418935,0.007641746,-0.002251308,-0.005327501,-0.000989786,-0.006218378,0.001366909,0.000678665,-0.002390398,0.002701119,-0.003150156,0.002381061,0.003172286,0.003718656
612.9998169,-0.005085486,-0.001591604,-0.002955572,-0.004698321,-0.003528074,0.007439223,-0.002547408,-0.005408295,-0.001117818,-0.006212815,0.001434508,0.000544775,-0.002347198,0.002788569,-0.003450575,0.002416331,0.003154373,0.003558379
612.000061,-0.005007139,-0.001367213,-0.00300447,-0.004579486,-0.003330217,0.007717575,-0.002137932,-0.005313641,-0.000917361,-0.006092659,0.001688714,0.000751265,-0.002236629,0.002829004,-0.003192814,0.002616499,0.003394561,0.003940192
611.0001221,-0.004970443,-0.001631011,-0.003019586,-0.004502636,-0.003339156,0.007732226,-0.002134274,-0.005212419,-0.000786531,-0.006063303,0.001590833,0.00090226,-0.002048127,0.002875281,-0.003130676,0.002722374,0.003533899,0.004004116
609.9998169,-0.004937429,-0.001596711,-0.003001745,-0.004666208,-0.003357959,0.008011768,-0.002156272,-0.005068959,-0.000976098,-0.006058862,0.00154594,0.000984186,-0.002007727,0.003092111,-0.003044264,0.002756551,0.00353322,0.004240985
608.9993286,-0.004713736,-0.001479397,-0.002970998,-0.004540141,-0.003177242,0.008156182,-0.001970931,-0.005001305,-0.000645427,-0.005678184,0.001442923,0.001215726,-0.001819281,0.003266639,-0.00276301,0.003095995,0.003521972,0.004428292
607.9984741,-0.004833559,-0.0016078,-0.002936237,-0.004643057,-0.003241943,0.008017042,-0.001969024,-0.004871956,-0.000587421,-0.005934935,0.001404096,0.00106335,-0.001824024,0.003200058,-0.002934952,0.003153903,0.003701738,0.004506517
606.9974365,-0.004794543,-0.001710692,-0.002851278,-0.00456755,-0.00314147,0.008077323,-0.001959077,-0.004885266,-0.000500088,-0.005895813,0.001503702,0.001188756,-0.001689135,0.003298172,-0.002846701,0.003208298,0.003688293,0.004420917
605.9961548,-0.004718038,-0.001676036,-0.002750252,-0.004405786,-0.00319194,0.007975065,-0.001826499,-0.004733248,-0.000518445,-0.005740419,0.001758417,0.001357665,-0.00162214,0.00335689,-0.002674518,0.003401005,0.00390498,0.004606654
604.9945068,-0.004659089,-0.001437654,-0.002578751,-0.004507145,-0.002899108,0.008542536,-0.001533931,-0.004571085,-0.000409323,-0.00553636,0.001994583,0.001441001,-0.00127028,0.003899626,-0.002514209,0.003611989,0.004032255,0.005014973
603.9926758,-0.004562017,-0.001294335,-0.002421599,-0.004272004,-0.002815479,0.008629111,-0.001403751,-0.004395536,-0.000147163,-0.005357979,0.002069016,0.001719718,-0.001061631,0.003925589,-0.002237401,0.003913705,0.004282157,0.005215137
602.9905396,-0.004526154,-0.001097988,-0.002362543,-0.004265596,-0.002684037,0.008652322,-0.001277301,-0.004347357,-0.000123251,-0.005291189,0.002294682,0.001713403,-0.000882487,0.004082422,-0.002193516,0.004146525,0.004354002,0.00522415
601.9881592,-0.004337978,-0.001032089,-0.002113151,-0.004200637,-0.002601138,0.008676114,-0.001213597,-0.00418387,0.000131857,-0.005220092,0.002188859,0.001897413,-0.000941642,0.004136045,-0.002080795,0.004154366,0.004458602,0.005328592
600.9854126,-0.004481884,-0.001306568,-0.002305487,-0.004170693,-0.002607262,0.008612053,-0.00104371,-0.004184742,0.000324472,-0.005155839,0.002399463,0.001996767,-0.000798779,0.004199189,-0.001897587,0.00425727,0.00475172,0.005599301
599.982605,-0.004451088,-0.00107072,-0.002079146,-0.00395707,-0.002436735,0.008855517,-0.000904394,-0.003946451,0.000839153,-0.00484175,0.002705078,0.002110113,-0.000573513,0.004417099,-0.001599341,0.004534976,0.00502262,0.005811934
599.0164795,-0.004347153,-0.00109427,-0.001978301,-0.004001855,-0.002455422,0.00887092,-0.000992059,-0.003881239,0.001136586,-0.004861,0.002849667,0.002530593,-0.000540783,0.004476047,-0.001529752,0.0047149,0.004964174,0.005767127
598.0131226,-0.004264058,-0.001127009,-0.001975415,-0.00393265,-0.002271548,0.008850973,-0.000741259,-0.003809757,0.001561138,-0.004821066,0.002823819,0.002482765,-0.000479609,0.004622822,-0.001536252,0.004782707,0.004955272,0.00591085
597.0093994,-0.004198073,-0.000952387,-0.001792368,-0.003815761,-0.002050034,0.009280969,-0.000538922,-0.003680411,0.00194996,-0.004678552,0.003005512,0.002644078,-0.000141004,0.004821,-0.001397817,0.004964855,0.005233765,0.006299859
596.0054321,-0.004249498,-0.000994951,-0.00187836,-0.00389812,-0.002006954,0.009215152,-0.000603862,-0.003610898,0.002215839,-0.004614525,0.003090442,0.002725057,-0.00012615,0.004885709,-0.001531609,0.0051722,0.005377259,0.006252008
595.0012207,-0.004268672,-0.000990509,-0.001708268,-0.003848142,-0.001962324,0.009317254,-0.000398668,-0.003492587,0.002554548,-0.004523797,0.003258475,0.002697133,5.24E-05,0.004976716,-0.001530526,0.005264106,0.005646792,0.006530047
593.9967651,-0.003925313,-0.000743223,-0.001459274,-0.003665319,-0.001804484,0.009611473,-0.000116005,-0.00342515,0.002614858,-0.004236989,0.003689728,0.002932847,0.000299915,0.005249485,-0.00132515,0.005630585,0.005761803,0.006835769
592.9919434,-0.003962919,-0.000852416,-0.001575768,-0.003677331,-0.001724202,0.009641143,-6.56E-05,-0.003348506,0.002127463,-0.004245345,0.003574012,0.002944574,0.000246867,0.005303541,-0.001299497,0.005810727,0.005915705,0.00687206
591.9869385,-0.003890321,-0.000671635,-0.001464434,-0.00347266,-0.001551884,0.009719968,7.91E-05,-0.003265066,0.002169555,-0.00412654,0.003795735,0.003347629,0.000534615,0.005462786,-0.001046344,0.006002755,0.006112163,0.007147786
590.9817505,-0.004005754,-0.000786686,-0.001412369,-0.00356977,-0.001616569,0.009651068,0.000184554,-0.003139671,0.00201921,-0.004155719,0.003871575,0.003527009,0.000561804,0.005552839,-0.001045311,0.006104839,0.006136002,0.007333903
590.0134888,-0.003834287,-0.000800794,-0.001300065,-0.003467011,-0.001349305,0.009909919,0.000428313,-0.003156786,0.002116642,-0.003888679,0.004002105,0.003573986,0.000767887,0.005723847,-0.000793973,0.006332454,0.006373168,0.007284964
589.0076904,-0.003900224,-0.000729682,-0.001125202,-0.003386162,-0.001267545,0.009960929,0.000485193,-0.002975626,0.002125252,-0.003874928,0.004225588,0.003700563,0.000992203,0.005807159,-0.00085531,0.006488293,0.006565603,0.007617693
588.0015869,-0.003795695,-0.0006507,-0.001207092,-0.003249034,-0.001160779,0.01022068,0.000731247,-0.002739294,0.002326509,-0.003702434,0.00434391,0.003707038,0.0011818,0.005971234,-0.000662176,0.006673917,0.00666335,0.007831264
586.9953003,-0.003692629,-0.000540887,-0.001138369,-0.003456892,-0.001228569,0.01016495,0.000902234,-0.002681207,0.002367865,-0.003687906,0.004586693,0.003896283,0.001254198,0.006221993,-0.000573255,0.006764748,0.006734986,0.008014141
585.9887695,-0.003417702,-0.000517618,-0.000903774,-0.003167888,-0.000909612,0.010317372,0.00115029,-0.002553635,0.002667258,-0.003451294,0.004748344,0.004086028,0.001589716,0.006508079,-0.000416875,0.007169234,0.006905593,0.008444048
584.9819946,-0.003652279,-0.000602259,-0.000877321,-0.003079324,-0.000822188,0.010459533,0.001173182,-0.002478794,0.002592905,-0.003460539,0.004692264,0.004276353,0.001721069,0.006432698,-0.000351958,0.007236689,0.007043273,0.008512256
584.012207,-0.003230586,-0.000347303,-0.000665122,-0.002987349,-0.000471386,0.010817023,0.001509338,-0.00216539,0.00303614,-0.003053055,0.005210736,0.00465974,0.001824283,0.006778289,5.78E-05,0.007842439,0.007439354,0.008825506
583.0048828,-0.00333895,-0.000194671,-0.000438028,-0.002806015,-0.000427167,0.010882286,0.001648307,-0.00189501,0.003085749,-0.002803391,0.005400375,0.004896783,0.002098148,0.0069522,0.000182975,0.007885009,0.007524235,0.009161454
581.9973145,-0.003357702,-0.000450803,-0.00056643,-0.002898903,-0.000567464,0.010850728,0.001664261,-0.002081259,0.003065702,-0.003008121,0.005447844,0.004713696,0.00200821,0.006966589,-2.07E-06,0.008001062,0.007500346,0.00915955
580.989563,-0.003237215,-0.000199483,-0.000330697,-0.002628773,-0.000363908,0.011051503,0.001982959,-0.001778447,0.003188454,-0.002697414,0.005621905,0.005040427,0.002268295,0.00716268,0.000367115,0.008354818,0.007823489,0.009597553
579.9813843,-0.003119008,-0.000149595,-0.000127858,-0.002621928,-0.000404616,0.011042926,0.002067143,-0.001596092,0.003359942,-0.002501186,0.005909407,0.005265887,0.002604493,0.007550521,0.000395692,0.008564845,0.008093437,0.009785783
579.010498,-0.003154371,-0.000160101,5.63E-05,-0.002639939,-0.000365201,0.011320251,0.002083842,-0.001603003,0.003524608,-0.002388287,0.005950817,0.005500718,0.00262077,0.007661426,0.000406496,0.008684275,0.007972718,0.009967948
578.0018921,-0.0030766,-1.44E-05,-4.22E-05,-0.002511069,-0.000227582,0.011355696,0.002465063,-0.00139312,0.003669679,-0.002319133,0.006169424,0.005622613,0.003012524,0.007671781,0.000739155,0.00894337,0.00839311,0.010467594
576.993042,-0.003019072,-4.57E-05,2.67E-05,-0.00250623,-0.000179922,0.011516619,0.002541243,-0.001306465,0.003902003,-0.002138499,0.006256735,0.005742365,0.003057725,0.007884799,0.000730261,0.009226971,0.008270831,0.010379273
575.9839478,-0.003071048,7.23E-05,5.36E-06,-0.002478485,-0.000143385,0.011700548,0.002645354,-0.001208693,0.003917701,-0.002167142,0.006559585,0.005800732,0.003179587,0.008083995,0.000862704,0.009318867,0.008543829,0.010636968
575.0119629,-0.003187315,1.30E-05,-5.18E-05,-0.002556878,-0.000130653,0.011677254,0.002706667,-0.001219018,0.004053471,-0.002128916,0.006513886,0.005961524,0.003283592,0.008167313,0.000888253,0.00950417,0.008763456,0.01076355
574.0024414,-0.002705955,0.000437408,0.000495274,-0.002107175,0.000273805,0.012167824,0.003286357,-0.000629246,0.004622744,-0.001618426,0.006996366,0.006472318,0.003992229,0.008657339,0.001309862,0.010047257,0.009269995,0.011293311
572.9926147,-0.00285853,0.000303101,0.000429376,-0.002267531,0.000293283,0.012233397,0.00316814,-0.000752164,0.00455258,-0.001604345,0.007062874,0.006480831,0.003994267,0.008787652,0.001361663,0.010224497,0.009254895,0.011542031
571.9825439,-0.002574222,0.000599363,0.000716,-0.001942584,0.000594853,0.012629952,0.003732546,-0.0003129,0.005082802,-0.001389508,0.007569723,0.006890207,0.004302784,0.009220441,0.001729126,0.010582775,0.009702682,0.012025901
571.0096436,-0.002659802,0.00062386,0.000812181,-0.001905422,0.000694739,0.012577109,0.003740692,-0.000347044,0.005107474,-0.00120291,0.007534533,0.006948886,0.00449663,0.009251272,0.001634639,0.010944879,0.009734157,0.012051131
569.9990234,-0.002402034,0.000737859,0.001171962,-0.001819178,0.000874817,0.012789854,0.00404072,-2.26E-05,0.005399327,-0.000991129,0.007850585,0.007316317,0.004607727,0.009624865,0.001949258,0.011311005,0.01000278,0.012330698
568.9882202,-0.002467005,0.000654424,0.001117977,-0.001730958,0.000953261,0.012866533,0.003949021,-6.86E-05,0.005646477,-0.000936837,0.007981129,0.007435273,0.004738557,0.009564579,0.001942628,0.011345812,0.010261205,0.012595362
568.0146484,-0.002199131,0.000783187,0.0014216,-0.001554514,0.001183954,0.013006971,0.004359154,0.000280928,0.005923892,-0.000600295,0.008285817,0.007832872,0.005189752,0.00992618,0.002205666,0.01176286,0.010394678,0.01293392
567.0032959,-0.002325828,0.000861822,0.001622167,-0.001571538,0.001569763,0.013282376,0.004722227,0.000536222,0.006078954,-0.000523461,0.008595498,0.008019072,0.005349034,0.010216812,0.00241201,0.012033033,0.01065766,0.013379298
565.9917603,-0.002194495,0.001257132,0.001912285,-0.001354259,0.001902301,0.013549385,0.005060828,0.000812414,0.006474656,-0.000164759,0.008964616,0.008238354,0.005931555,0.010672039,0.002756056,0.012506261,0.01101125,0.013729208
565.017334,-0.00212361,0.001325389,0.002105535,-0.001218347,0.002077417,0.013658947,0.005246577,0.001067372,0.00672192,-5.91E-05,0.009103453,0.008591379,0.006524056,0.010775889,0.002981402,0.012685174,0.011198553,0.014012424
564.0053711,-0.002048024,0.001390852,0.002103636,-0.001148232,0.002244122,0.013874414,0.005552288,0.001248227,0.006995919,0.000304733,0.009674863,0.008800119,0.007313289,0.011062656,0.002982262,0.013125149,0.011512206,0.014327528
562.993042,-0.001964798,0.001433962,0.002251433,-0.000991852,0.002386032,0.01406555,0.005779221,0.001486402,0.007233556,0.000369161,0.009943263,0.009090421,0.007862314,0.011272322,0.003130176,0.013383223,0.011818292,0.01470099
562.0180054,-0.001817734,0.001540511,0.002516247,-0.000982244,0.002546867,0.014293873,0.006146634,0.001687649,0.007492288,0.000553173,0.010045191,0.009413956,0.008818928,0.011510239,0.003421224,0.013726136,0.01212406,0.014905831
561.005249,-0.001849131,0.001550668,0.002479095,-0.00093317,0.00260379,0.014453692,0.006287069,0.001749346,0.007696021,0.000711489,0.010179233,0.009563257,0.009481337,0.011760945,0.003337821,0.01389895,0.012506208,0.01527743
559.9921875,-0.0019197,0.001799458,0.002346497,-0.000833298,0.002408626,0.014557488,0.006328908,0.001809856,0.007863157,0.000707107,0.010404912,0.009684683,0.010001217,0.011793926,0.003466677,0.013985557,0.012410306,0.015456872
559.0163574,-0.001624203,0.001965458,0.00273407,-0.000672049,0.002599962,0.014840039,0.006761803,0.002279823,0.008225902,0.001143438,0.010833159,0.010126528,0.010795368,0.0122813,0.003841619,0.014573656,0.012754131,0.015957749
558.0029297,-0.001575252,0.002090839,0.002878512,-0.000626092,0.002706901,0.014974284,0.007121024,0.002406908,0.008448746,0.00146222,0.011020676,0.010366654,0.01070324,0.012544707,0.0039811,0.014999256,0.012975791,0.01636366
556.9891968,-0.001232079,0.00226689,0.003065832,-0.000277047,0.003059549,0.015360317,0.007612767,0.002780518,0.008856706,0.00187859,0.011385458,0.010838917,0.010729878,0.012942507,0.004291202,0.015388745,0.013329033,0.016662264
556.0127563,-0.00125402,0.002412218,0.003364611,-0.000150889,0.003286226,0.015595761,0.007834665,0.003131506,0.00915294,0.0020512,0.011754535,0.011185139,0.010742986,0.013207812,0.004504582,0.015859013,0.01384026,0.017094683
554.9985352,-0.001272861,0.002390692,0.003406301,-0.000152235,0.00335762,0.015772516,0.008169846,0.003217713,0.009419563,0.002089356,0.012048283,0.011308295,0.010576038,0.013412749,0.004664816,0.016041758,0.01378783,0.017399825
553.9840088,-0.001077847,0.002463865,0.003681244,-7.77E-07,0.003669836,0.015956674,0.008574983,0.003569393,0.009722113,0.002345846,0.012374935,0.011730254,0.010691565,0.013844081,0.004847673,0.016403418,0.014222558,0.01783886
553.006897,-0.001028473,0.002654288,0.003770041,-4.04E-06,0.00378529,0.016338179,0.008860458,0.003744739,0.009946309,0.002656137,0.012592298,0.012057678,0.010646014,0.014031808,0.004980906,0.016733874,0.014621255,0.018279336
551.9919434,-0.00079728,0.00293355,0.004368566,0.000332348,0.004270184,0.016779907,0.009161533,0.00416299,0.010314986,0.003149523,0.013329247,0.012464088,0.010908114,0.014632714,0.005451147,0.017328538,0.015112778,0.018655809
551.0143433,-0.00075573,0.00293514,0.005041265,0.000408958,0.004306653,0.016811468,0.009271422,0.004439197,0.010636013,0.003274307,0.013528554,0.012734005,0.010749275,0.014778169,0.005553442,0.017635785,0.015278986,0.019146863
549.9989014,-0.000695827,0.002957892,0.005555749,0.000493123,0.004605843,0.017016931,0.009327726,0.004619814,0.011002622,0.003544234,0.014148526,0.013125522,0.010689284,0.015083349,0.005720201,0.018047938,0.015700178,0.019434096
548.9832153,-0.000583182,0.003147541,0.005900039,0.000695517,0.00479883,0.017323904,0.009630397,0.004979623,0.011269879,0.003906731,0.014326137,0.013565836,0.010927783,0.015290408,0.005954963,0.018461807,0.01614647,0.019915354
548.0048828,-0.000363856,0.003289539,0.006133796,0.000906929,0.004943699,0.01769235,0.009940137,0.005392119,0.011570768,0.004241455,0.014773723,0.013984274,0.011164874,0.015630968,0.006201222,0.018828029,0.016319364,0.020371588
546.9887695,-0.000297794,0.003494259,0.006040893,0.001045238,0.005222656,0.017968288,0.010382746,0.005687049,0.011947507,0.004575051,0.015387645,0.014361856,0.011545673,0.016107919,0.006606681,0.019356275,0.016582625,0.020851117
546.0100708,-0.000292775,0.003466938,0.005470466,0.00107796,0.005384702,0.018310171,0.010541107,0.005899882,0.01226527,0.004810347,0.015677715,0.014672687,0.011789856,0.016418686,0.006710983,0.019693755,0.016974829,0.021204166
544.9934692,-0.000257644,0.003618306,0.005325055,0.001327544,0.005704228,0.018572427,0.010732797,0.006164751,0.012655564,0.005077642,0.01602027,0.015055398,0.012016028,0.016759137,0.006858964,0.020072512,0.01705567,0.021615393
544.0142822,1.86E-05,0.003852718,0.005765711,0.001628689,0.005975644,0.019002669,0.011212552,0.006725758,0.013167678,0.005501085,0.016554523,0.015664162,0.012614575,0.01709654,0.007203789,0.02065176,0.017915601,0.022165731
542.9971313,0.000201362,0.004094965,0.006009658,0.001818148,0.006364579,0.01926307,0.011697012,0.007214869,0.013770168,0.006003149,0.017073197,0.016309688,0.013106606,0.017590093,0.007514858,0.02131323,0.018620439,0.022810552
542.0174561,0.000307349,0.004271726,0.006243447,0.001920709,0.006565498,0.019714775,0.012197427,0.007525683,0.014081861,0.006289327,0.017729236,0.016746275,0.013644309,0.017992867,0.007893709,0.021699607,0.018917382,0.023320613
540.999939,0.00046669,0.004502908,0.006419351,0.001994895,0.007002233,0.020333257,0.012647835,0.007920281,0.014582142,0.006743031,0.01846448,0.017302757,0.014287801,0.018762965,0.008416387,0.022330465,0.019362472,0.024015546
539.9821777,0.000426059,0.004478584,0.006526526,0.002055439,0.007122155,0.020330815,0.012809316,0.008133051,0.014969461,0.007058138,0.018812431,0.017718935,0.014585703,0.018860307,0.008472898,0.022631619,0.019706566,0.024491584
539.0018921,0.000563955,0.004659688,0.006854598,0.002367475,0.007483307,0.020657461,0.013229427,0.008688527,0.015632737,0.007507247,0.019428357,0.01829578,0.015193166,0.019254249,0.008812641,0.023223661,0.02034172,0.025035709
537.9836426,0.000930561,0.004947469,0.007322135,0.002667414,0.007765983,0.021078389,0.013865435,0.009290331,0.016456136,0.008151171,0.020236343,0.019239528,0.015834313,0.019794745,0.009123411,0.023839807,0.021070238,0.025701532
537.0028687,0.00091964,0.005127878,0.00749737,0.002738056,0.008068568,0.02168203,0.014315087,0.009740458,0.016928559,0.008630827,0.020893676,0.01985365,0.016309366,0.020346848,0.009516342,0.024510263,0.021572327,0.026449805
535.9840698,0.001086212,0.00533103,0.007772281,0.003030223,0.008432672,0.021978814,0.014733847,0.010235787,0.017563462,0.009159735,0.021550402,0.020465221,0.017036339,0.020888435,0.009829364,0.025051065,0.022296047,0.027064849
535.0028687,0.001378984,0.005491753,0.008112321,0.003299268,0.008775633,0.022356763,0.015254855,0.01083077,0.018470855,0.009828729,0.022216376,0.021410601,0.017701058,0.021304123,0.01006,0.025772644,0.022962457,0.027741242
533.9837036,0.001350446,0.005578272,0.008314709,0.003339281,0.008915387,0.022868967,0.015780568,0.011245969,0.018869175,0.010181459,0.022965731,0.022089871,0.018178698,0.021718141,0.010351437,0.026208596,0.023803055,0.028482372
533.0020752,0.001428171,0.005859474,0.008867036,0.003555143,0.009500942,0.02339609,0.016426886,0.01180821,0.019532535,0.010798154,0.023767754,0.022826375,0.01901143,0.022520315,0.010847517,0.026955184,0.024318829,0.029304849
531.9824219,0.001681412,0.006069215,0.009374621,0.003814302,0.009917493,0.023767401,0.016954372,0.012559016,0.020518301,0.011539347,0.024820143,0.023860728,0.019845385,0.023046467,0.011141209,0.027792403,0.024964089,0.030182216
531.0003052,0.001851006,0.006296497,0.009655461,0.004126611,0.010307299,0.024258824,0.017479319,0.013284004,0.021382349,0.012377039,0.025901491,0.025086498,0.020642394,0.023604225,0.011541685,0.028509572,0.025418114,0.031091334
530.0180664,0.002047871,0.006357697,0.009726004,0.004380594,0.010537818,0.024649477,0.018149897,0.01396957,0.022251332,0.013078327,0.026961546,0.026194932,0.021509789,0.024044463,0.011751237,0.029131249,0.026428292,0.031959452
528.9976807,0.002046154,0.006589019,0.010056715,0.004412941,0.010974745,0.025648339,0.019009998,0.01454314,0.022850277,0.01383887,0.028116703,0.027242722,0.022416588,0.024941798,0.01241321,0.029948633,0.026979698,0.033126459
528.0148926,0.002224139,0.00679254,0.01111505,0.004744968,0.011552505,0.026282843,0.01962699,0.015433375,0.023886874,0.014762073,0.029216129,0.028438564,0.023610348,0.02585841,0.013005584,0.030980233,0.027746376,0.034308687
526.9942017,0.002429737,0.007045772,0.013066215,0.005068816,0.012051317,0.026884815,0.020433828,0.016463181,0.025239667,0.015900336,0.030853566,0.030195037,0.024835272,0.026690047,0.01342463,0.032016601,0.029138224,0.03576218
526.0109863,0.002595196,0.007281779,0.014340638,0.005347408,0.012576416,0.02774621,0.021403939,0.017469913,0.026335565,0.017021937,0.032696877,0.031850912,0.026159629,0.027546836,0.014062047,0.033177085,0.030071901,0.037246585
524.9897461,0.002721905,0.007386955,0.014976187,0.00564236,0.013107033,0.028336952,0.022182349,0.018405629,0.027632207,0.01824864,0.034256108,0.033529423,0.027573287,0.028458353,0.014609556,0.034224011,0.031003308,0.038657326
524.0060425,0.003003661,0.007676471,0.015727824,0.005979659,0.013695225,0.029155305,0.023314796,0.019721301,0.029142128,0.019689474,0.036356024,0.035598427,0.029224519,0.029518608,0.015259708,0.035491135,0.032267917,0.040481672
522.984436,0.003162664,0.007919095,0.014577699,0.006335028,0.014320198,0.030059973,0.024509469,0.020927142,0.030708821,0.021216398,0.038502179,0.037835602,0.030899869,0.030615427,0.015835898,0.036781382,0.033647139,0.042335805
522.0003662,0.003364585,0.008275211,0.013007157,0.006693554,0.014962548,0.031006616,0.025684066,0.022257326,0.032483503,0.022799721,0.040859755,0.040167715,0.032843571,0.031781722,0.016685613,0.038206186,0.035373032,0.044398688
521.0159912,0.003552115,0.008371998,0.013054905,0.006986686,0.015527881,0.031892084,0.026843123,0.02370091,0.034115434,0.024489997,0.043270465,0.042624917,0.034783892,0.032917481,0.017345052,0.03970658,0.036803585,0.046577077
519.9937134,0.003899156,0.008717366,0.013587602,0.00764575,0.016390191,0.033110339,0.028437292,0.025629995,0.036517106,0.026574919,0.046293415,0.045834303,0.037265003,0.034437064,0.018281119,0.04171025,0.0389833,0.049258299
519.0089722,0.004048715,0.008984066,0.013915335,0.007862181,0.017063102,0.034397837,0.029923147,0.027289525,0.038721249,0.028578656,0.049367711,0.048703633,0.039510716,0.035981111,0.019216828,0.043540459,0.040879238,0.051973011
517.9862061,0.004133772,0.009160053,0.014312546,0.008215192,0.01783511,0.035519648,0.031291787,0.02888044,0.040741522,0.030663844,0.052159783,0.051783755,0.041921113,0.03747157,0.020158894,0.045271117,0.042724304,0.054629877
517.0010986,0.004219237,0.009365708,0.014782802,0.008593201,0.018548463,0.036872476,0.03306891,0.030948291,0.043427069,0.0329253,0.05553792,0.055307087,0.044561636,0.039160829,0.021167582,0.047409806,0.04511385,0.057725329
516.0157471,0.004613822,0.009728386,0.015373458,0.009105066,0.019584445,0.038324751,0.034947086,0.033173788,0.046285063,0.035506025,0.059549019,0.059105732,0.047710266,0.041012872,0.022419697,0.049888093,0.047658119,0.061096255
514.9923096,0.004779672,0.010026276,0.015911184,0.009689156,0.020663759,0.040028296,0.037365705,0.035883229,0.049774889,0.038721588,0.064099461,0.063637212,0.051402804,0.043270152,0.023822444,0.052645504,0.05054279,0.065192647
514.0065308,0.004987504,0.010189701,0.016471811,0.010269978,0.021893865,0.041911904,0.039649062,0.038758039,0.053496316,0.042027548,0.069011226,0.068348043,0.055167068,0.045631658,0.02514434,0.055619299,0.053916883,0.069876224
512.9825439,0.005217155,0.010518484,0.017119132,0.010834194,0.023123752,0.043921586,0.04222969,0.041599389,0.057187002,0.045270287,0.074295305,0.073164932,0.059162948,0.048084199,0.02687424,0.058837865,0.057470281,0.074250862
511.9963989,0.005360565,0.010747391,0.017648106,0.011381817,0.024229618,0.045763139,0.044783268,0.044365946,0.060735572,0.048461583,0.079505645,0.0775785,0.062806226,0.050440699,0.028453875,0.061854396,0.060650852,0.078745998
511.0099182,0.005646792,0.011133401,0.018335445,0.012015123,0.025561983,0.047856599,0.047409691,0.047436573,0.064562626,0.051820822,0.084656462,0.082389072,0.066845775,0.052990373,0.030164486,0.06510777,0.064125083,0.083432831
509.9854126,0.005888389,0.011485917,0.019131308,0.012746961,0.027162304,0.050562359,0.050589379,0.051092211,0.0690189,0.055769969,0.090469778,0.087998539,0.071329415,0.056060657,0.032229021,0.06900543,0.068356432,0.088956684
508.9985657,0.006242948,0.011939817,0.020006448,0.01370129,0.029056432,0.053379741,0.054112293,0.055255257,0.074036695,0.060261365,0.096557066,0.093756728,0.076384813,0.059520546,0.034446679,0.073514447,0.072875097,0.095319256
508.0115356,0.00633009,0.012179405,0.020744395,0.014390191,0.030713268,0.055916835,0.057440821,0.058909636,0.07856667,0.064117044,0.102235362,0.099188469,0.081192434,0.062669419,0.036434785,0.077799961,0.077277161,0.10109441
506.9863586,0.006691215,0.012595495,0.021632535,0.015256115,0.032612234,0.05866272,0.060877427,0.0627653,0.08331158,0.06824898,0.107992075,0.104922667,0.085884176,0.065979011,0.038541581,0.082207762,0.081508085,0.107141256
505.9988098,0.006807028,0.012880426,0.022555159,0.016118154,0.034315944,0.061472684,0.064308397,0.066572435,0.08796709,0.072196484,0.113643475,0.110056743,0.0906258,0.069153681,0.040693756,0.086537108,0.085852668,0.112682864
505.0112,0.007044062,0.013297003,0.023605101,0.01720983,0.036403932,0.064725265,0.068360433,0.070909813,0.093192555,0.076628268,0.119500294,0.115943693,0.095703453,0.072994113,0.043214876,0.091504656,0.09074726,0.119379923
503.9853516,0.007513463,0.013814819,0.024710659,0.01829613,0.038748108,0.06835901,0.072797887,0.075630382,0.098658822,0.081327766,0.125945002,0.122011259,0.101191059,0.077019744,0.046097402,0.096960031,0.095820248,0.126254454
502.9971924,0.007784747,0.014337,0.025977882,0.019630538,0.041230511,0.072232038,0.077237457,0.080334641,0.104108065,0.085937247,0.132528022,0.128110245,0.106527843,0.080973282,0.048888307,0.102432244,0.101187661,0.133390978
502.0089111,0.007968764,0.014704043,0.026950777,0.020665877,0.043368824,0.075469799,0.081294492,0.084744863,0.109125592,0.089911833,0.138295606,0.133254588,0.111309081,0.08458522,0.051409654,0.107300334,0.105769903,0.139510289
500.9823914,0.008275053,0.015226222,0.02817777,0.021842605,0.045906287,0.079215735,0.085787721,0.089330405,0.114671908,0.094403565,0.144008294,0.13857545,0.116090007,0.088735431,0.054388404,0.112902798,0.110613681,0.145940632
499.9936829,0.008703819,0.015797695,0.029549086,0.023343613,0.048674647,0.083217606,0.090768985,0.094287567,0.119925268,0.098717824,0.149756447,0.14408645,0.121398613,0.093012042,0.057643589,0.118661113,0.115717247,0.153003141
499.0047913,0.009114476,0.016361779,0.030666595,0.024810933,0.05151923,0.087338276,0.095376931,0.099099807,0.125588551,0.102899261,0.155048132,0.149441004,0.126413152,0.097237326,0.060853783,0.124458768,0.120849773,0.159614995
498.0157166,0.009351504,0.016937738,0.032047339,0.026296923,0.05434531,0.091249458,0.100228973,0.103696145,0.130840346,0.107058406,0.159548983,0.154275388,0.131146416,0.101184852,0.063987173,0.130195111,0.125429675,0.166266382
496.9883118,0.009637543,0.017624732,0.033431869,0.027695715,0.057054173,0.095285341,0.104591116,0.108112685,0.135700867,0.110784359,0.164124712,0.158698648,0.135786891,0.105237976,0.067180268,0.135669872,0.129896686,0.172115162
495.9987793,0.00997004,0.018275423,0.035153706,0.029199462,0.059952725,0.099037893,0.109242253,0.112321705,0.140451372,0.114417352,0.168227971,0.162766725,0.139632195,0.109211929,0.070079319,0.141024962,0.134092018,0.177759975
495.0090942,0.010395579,0.019080671,0.037052359,0.031097092,0.063288793,0.103297912,0.113845527,0.116970077,0.145547122,0.118204743,0.17258887,0.167055473,0.144004688,0.113165706,0.073348634,0.146883637,0.13839139,0.183616713
493.9810791,0.010914112,0.019817449,0.039197288,0.033033632,0.066564739,0.10767784,0.118869118,0.121620067,0.150525183,0.121979617,0.177130342,0.171391591,0.14832747,0.11744231,0.076658815,0.152813301,0.14316763,0.18959935
492.9909973,0.011287333,0.02057467,0.041040786,0.034813259,0.069750279,0.111539364,0.12352597,0.125840947,0.154950857,0.125041604,0.18067731,0.174614072,0.151914701,0.12094719,0.079455167,0.157929733,0.147025973,0.194382727
492.0005493,0.011444137,0.021132033,0.042607386,0.036216665,0.072381794,0.115388058,0.127262905,0.129074752,0.15811269,0.127518967,0.183593512,0.177388474,0.154683441,0.124307305,0.08219175,0.162340105,0.150049195,0.198534161
491.0100098,0.011833507,0.021961767,0.044460081,0.037921719,0.075488277,0.119200379,0.131249249,0.132600904,0.161709011,0.129966587,0.186323062,0.179963753,0.157570332,0.127622545,0.085005336,0.166782543,0.153110653,0.202639848
489.9812012,0.012444003,0.02287999,0.046928175,0.040223628,0.07905028,0.123541765,0.135784239,0.136795864,0.166020736,0.1330484,0.189804778,0.183129922,0.160818011,0.131284162,0.088165596,0.172256619,0.156531245,0.207099855
488.9902039,0.012953175,0.023750257,0.049139582,0.04220587,0.082207732,0.127246991,0.139766067,0.140256152,0.169599772,0.135393068,0.192472622,0.18545036,0.163289994,0.134597302,0.090987161,0.176850513,0.159688532,0.210718423
487.999115,0.013207945,0.024626106,0.050998494,0.043781985,0.084902495,0.130782127,0.143115073,0.142958403,0.172169849,0.137239859,0.194584176,0.187081635,0.165603191,0.137241915,0.093365163,0.180506915,0.161950469,0.213734731
487.007782,0.01373156,0.025683846,0.053053603,0.045598734,0.087919578,0.134241924,0.146470517,0.145712838,0.174919412,0.138960481,0.196380854,0.188869163,0.168053672,0.140060917,0.095935911,0.184316233,0.163977459,0.216503471
486.0161743,0.014453425,0.026887652,0.055823687,0.047959559,0.091288939,0.137761191,0.150362268,0.149102256,0.177980959,0.141043276,0.198520094,0.190527439,0.170278519,0.14285484,0.098498881,0.188446447,0.166425288,0.219213098
484.9863586,0.015025303,0.028004758,0.058463831,0.050117806,0.094496131,0.141219169,0.15366298,0.151733175,0.180566937,0.142489955,0.200250357,0.191953018,0.172023028,0.145439789,0.101015352,0.192115516,0.168342695,0.221515834
483.9944153,0.0152496,0.029008884,0.060145337,0.051355515,0.096791916,0.144179985,0.155933335,0.153468952,0.181970105,0.143475846,0.201382682,0.192716107,0.173185214,0.147536948,0.102991819,0.194588065,0.169355258,0.223176986
483.0022583,0.015812488,0.030014174,0.062255114,0.053127613,0.099372812,0.146627665,0.158229455,0.155255929,0.183649257,0.144460335,0.202162489,0.193348959,0.174203768,0.14933905,0.104730912,0.197252497,0.170347914,0.224402636
482.0099182,0.016477296,0.031280521,0.064804383,0.055079371,0.101977415,0.149364471,0.160747573,0.157268718,0.185428262,0.145599678,0.203198716,0.194251448,0.175033122,0.151277527,0.106488608,0.199774891,0.171352461,0.225584224
481.017395,0.017132487,0.032432567,0.067263521,0.056935549,0.104512736,0.15178974,0.163117468,0.158952802,0.186806858,0.146246046,0.203720614,0.194668472,0.175383776,0.152869463,0.108157411,0.202091217,0.171916992,0.226194128
479.9864502,0.01776785,0.033776972,0.069916092,0.058798119,0.107075036,0.154171601,0.165349737,0.160641745,0.188070118,0.146895617,0.204345763,0.194959819,0.175942749,0.154317677,0.109633081,0.204104364,0.172289342,0.226801679
478.9935303,0.018366093,0.034885176,0.072221369,0.060399197,0.109154515,0.156308889,0.167136177,0.161939308,0.189124554,0.147389352,0.204759151,0.195193842,0.176430672,0.155645937,0.111027338,0.205773696,0.172718689,0.227153108
478.0004272,0.019086134,0.036250547,0.07458327,0.062096145,0.111327581,0.158373281,0.168830842,0.163079158,0.190193385,0.148035556,0.20517762,0.195579961,0.176951185,0.15686883,0.112350471,0.207302079,0.173020586,0.22749415
477.007019,0.019705564,0.037417732,0.076768957,0.063544795,0.113361388,0.160050765,0.170201555,0.164004803,0.190849081,0.148332894,0.205560505,0.195620418,0.177417338,0.157888874,0.113387369,0.208571449,0.173143283,0.227569073
476.0135193,0.02057725,0.038920838,0.079309195,0.065198086,0.115297347,0.16198501,0.171857923,0.165198624,0.191716209,0.148839608,0.205730468,0.195827887,0.177808702,0.159062222,0.114578143,0.209937438,0.173218146,0.227607027
474.9816589,0.021498447,0.040424988,0.081864342,0.066871718,0.117262214,0.16375941,0.173303902,0.166199133,0.19246766,0.149069518,0.205930218,0.196035415,0.178105429,0.160062969,0.115617238,0.211078793,0.173051238,0.227330536
473.9876709,0.022297191,0.041820001,0.084118813,0.068249702,0.118947581,0.165175185,0.174476787,0.166884437,0.193078354,0.149329558,0.206062913,0.196010888,0.178334087,0.160838738,0.116333462,0.21193251,0.17289187,0.227054581
472.9935913,0.022935221,0.042996328,0.086156033,0.069424041,0.120343588,0.166456908,0.175513238,0.167486936,0.19350636,0.149505168,0.20610626,0.196043342,0.178451464,0.161489248,0.117098697,0.21267359,0.172654033,0.226767555
471.9993286,0.023745198,0.044238355,0.088129766,0.070634909,0.121737048,0.167571113,0.176461592,0.168189645,0.193965554,0.149735913,0.20637168,0.196087003,0.178729281,0.162137196,0.11768385,0.213185445,0.172627032,0.226496443
471.0048218,0.024635613,0.045797512,0.090302497,0.071902007,0.123248361,0.168920398,0.177500725,0.16876857,0.194532976,0.14995262,0.206454247,0.196295828,0.178823754,0.162864417,0.118535429,0.213870034,0.172354356,0.22629115
470.0101624,0.025628896,0.047344361,0.092724383,0.073291078,0.12474867,0.17025362,0.178548917,0.169510767,0.194998875,0.150450438,0.206857383,0.196634695,0.179181665,0.163613111,0.119247355,0.2145897,0.172279149,0.226061761
469.0152893,0.026507666,0.04859459,0.094664007,0.074462891,0.126104236,0.171306446,0.179610521,0.170221329,0.195763037,0.150752068,0.207273588,0.197042912,0.179641947,0.164237663,0.119947992,0.215271756,0.17216453,0.226117045
467.9819031,0.027479626,0.049998708,0.096674636,0.075543135,0.127444014,0.172491506,0.180517152,0.170838445,0.196217284,0.151060045,0.207670778,0.197289467,0.179995135,0.164869189,0.120414704,0.215780765,0.172119752,0.225961313
466.9866638,0.028214507,0.051095881,0.098287769,0.076399997,0.128308386,0.173290819,0.181155056,0.171274528,0.196556002,0.151281163,0.207829893,0.197549835,0.180192798,0.165318564,0.120863177,0.216227546,0.171958789,0.225857496
465.9912415,0.029274831,0.052737005,0.100178339,0.077629536,0.129673421,0.174477533,0.182204783,0.172018066,0.197292492,0.151894808,0.208368853,0.198159173,0.180762321,0.166100726,0.121431686,0.21679771,0.172134101,0.225976646
464.9955444,0.030109048,0.053915475,0.101900034,0.078424253,0.130712867,0.175359979,0.182890892,0.172564566,0.197771907,0.15218249,0.208903581,0.198626414,0.181055963,0.166669026,0.121999227,0.217242897,0.171952337,0.22604534
463.9997253,0.031145563,0.055289593,0.103549644,0.079418704,0.131729007,0.176345617,0.183731169,0.173266172,0.198482245,0.152643278,0.209438577,0.199153245,0.181727767,0.16732879,0.1223896,0.217873678,0.17210801,0.226229295
463.0037537,0.032034047,0.056428883,0.105139792,0.080391482,0.13271372,0.177052513,0.184476405,0.173932031,0.199032307,0.153205752,0.210117802,0.199792728,0.182230502,0.167866513,0.122843616,0.218267933,0.172362253,0.226470366
462.0075378,0.032898128,0.057642139,0.106655262,0.081248172,0.133622855,0.177988768,0.185186058,0.174621761,0.199761733,0.153699055,0.210823193,0.200565994,0.182805151,0.168508723,0.123262942,0.218835473,0.172742039,0.226935625
461.0111389,0.034071278,0.058902163,0.108412877,0.082150646,0.134662837,0.178943142,0.186306357,0.17553778,0.200679347,0.154481232,0.211825118,0.201583996,0.183698654,0.169264495,0.123798251,0.219562516,0.173239589,0.227605537
460.0145264,0.034900464,0.060202546,0.109877981,0.082890652,0.135725632,0.180226982,0.187354162,0.17637156,0.20159556,0.155241609,0.213000968,0.202738836,0.18470864,0.170309022,0.124615975,0.220376894,0.173761711,0.228502035
459.0177917,0.03619666,0.061669465,0.111740045,0.084072158,0.137044936,0.181641206,0.188670263,0.177664459,0.202908024,0.156401977,0.214456543,0.204089209,0.186018646,0.171507374,0.125445321,0.22160767,0.174573362,0.229846656
457.9824219,0.037185159,0.06290549,0.113205351,0.084883861,0.138133466,0.182643026,0.189729765,0.17869471,0.204196855,0.157253295,0.215706453,0.205535084,0.187015459,0.172327951,0.12605454,0.222518444,0.175422743,0.230857611
456.9852905,0.038183432,0.064129621,0.11463315,0.085788131,0.139179945,0.18376255,0.190953866,0.179848194,0.205455929,0.158400908,0.217309281,0.206971183,0.188471213,0.173435211,0.126704738,0.223625168,0.176546678,0.232190236
455.9880066,0.039287079,0.065383658,0.116338201,0.086670458,0.140284717,0.184970811,0.19223845,0.181051761,0.206856594,0.15968056,0.218885854,0.208568111,0.189731196,0.174549326,0.127477855,0.224952355,0.177525461,0.233770609
454.9904175,0.040304344,0.066483818,0.117826231,0.087501094,0.141583249,0.186346471,0.193524391,0.182487145,0.208473846,0.160930038,0.220671743,0.210401937,0.191340372,0.17577064,0.128234685,0.226329029,0.17881684,0.235520318
453.9927063,0.041477248,0.067675129,0.119356684,0.088620275,0.142816931,0.187768832,0.19523491,0.184082478,0.210155338,0.162473559,0.222818598,0.212357834,0.193069592,0.177090019,0.129126191,0.227763787,0.180311769,0.237565696
452.9948425,0.042468689,0.068844996,0.120829359,0.089576267,0.144113362,0.18925257,0.196739242,0.185581356,0.211919352,0.163921505,0.2249192,0.21426855,0.194831371,0.178593352,0.130130306,0.229321569,0.181778982,0.23954989
451.9967957,0.043370198,0.069799125,0.122274458,0.090295993,0.145313352,0.19069916,0.19835642,0.186985165,0.213627607,0.165202037,0.226647615,0.216251656,0.19641389,0.179923639,0.130926102,0.230867028,0.183293968,0.241562605
450.9985046,0.044487525,0.071101345,0.123927362,0.09140522,0.146835253,0.192305714,0.200163022,0.18881397,0.215854198,0.167005986,0.229075313,0.218569055,0.198431224,0.181515098,0.132016927,0.232868403,0.185204208,0.244222254
450.000061,0.045605376,0.072215073,0.125560135,0.092516609,0.148401707,0.193994641,0.202203602,0.190889254,0.218028933,0.168802545,0.231443659,0.221068844,0.200613558,0.183263257,0.133238405,0.235114947,0.186944783,0.24701041
449.0014648,0.046645924,0.07346122,0.127147585,0.093535133,0.149877206,0.195744053,0.204197764,0.192852095,0.220229745,0.17082721,0.234165683,0.223593101,0.2028182,0.185101405,0.134555593,0.237252191,0.189230636,0.249622688
448.002655,0.047574118,0.074618772,0.128705666,0.094517112,0.151278123,0.197627276,0.206226811,0.194797963,0.222735286,0.172671765,0.236695617,0.22607623,0.204888001,0.186901152,0.135770649,0.239467129,0.19134745,0.252432108
447.0036316,0.048505288,0.075625665,0.130113989,0.0955396,0.152843371,0.199507132,0.208133519,0.196878985,0.224857539,0.174565628,0.239322081,0.228587791,0.207056195,0.188791111,0.137078226,0.241838366,0.193447635,0.255408704
446.0044556,0.049650691,0.076990165,0.131963685,0.096811391,0.154638603,0.201897577,0.210747063,0.199115336,0.227618605,0.176756859,0.242327124,0.231516048,0.209654644,0.191098303,0.138672903,0.244651914,0.195980892,0.258751631
445.0050964,0.050710995,0.078272551,0.133780658,0.097998418,0.15645802,0.204015091,0.213169798,0.201611742,0.230444774,0.179204151,0.245328784,0.234437704,0.212362513,0.193502083,0.140210971,0.247358099,0.198579669,0.26216054
444.0055847,0.051809244,0.07946679,0.135502651,0.099239118,0.158214137,0.206231639,0.215781868,0.204088718,0.233011842,0.181459382,0.24842912,0.237535909,0.214980513,0.195633039,0.141805187,0.250316083,0.201024428,0.265736193
443.0058289,0.052854519,0.080820166,0.137469351,0.100475773,0.160254419,0.208761841,0.218619764,0.20682846,0.236171678,0.183990493,0.251785636,0.240714505,0.217941657,0.198089689,0.143519402,0.25330618,0.203843355,0.269434631
442.0059814,0.05398494,0.082061455,0.139347002,0.1018764,0.1622338,0.211169586,0.221415624,0.209518999,0.239218608,0.186418474,0.255221009,0.244084641,0.220786676,0.200435251,0.145396665,0.256509334,0.206735492,0.273298115
441.0058899,0.054945569,0.083250962,0.141280815,0.103117608,0.16413714,0.213648826,0.224227116,0.212297142,0.242219538,0.188932017,0.258593947,0.247236401,0.223685727,0.203197151,0.147334367,0.259811163,0.20960851,0.277027845
440.0055847,0.056033149,0.084687389,0.143179208,0.104533285,0.166263923,0.216340795,0.227183551,0.215071917,0.245399654,0.191437796,0.262184084,0.250394225,0.226641282,0.205831364,0.149272978,0.263225108,0.212441206,0.280920893
439.0051575,0.057070646,0.085799143,0.145146146,0.105874009,0.168414101,0.218806759,0.230019659,0.217908219,0.248685315,0.194051042,0.266410738,0.253729552,0.229622066,0.208305538,0.151149198,0.266546428,0.215404838,0.284815103
438.0045776,0.05810947,0.087156504,0.147122547,0.107375637,0.170690969,0.221515283,0.233171061,0.220882967,0.252032757,0.19666189,0.271024406,0.25731799,0.232739508,0.211266026,0.153107747,0.270244896,0.218387932,0.288833618
437.0038147,0.05936848,0.088661708,0.149498448,0.109052315,0.172932535,0.224622011,0.236661643,0.224168092,0.255714625,0.199558482,0.27604872,0.260919452,0.23619023,0.214222521,0.155418366,0.274083197,0.221737608,0.293307126
436.0027771,0.060459055,0.089985356,0.151539639,0.110657595,0.17555058,0.227724165,0.240051016,0.227429822,0.259295493,0.202602908,0.280405998,0.264436066,0.23929885,0.217284173,0.157593072,0.278054953,0.225016192,0.297731161
435.0016785,0.061690919,0.091523223,0.153899521,0.112292506,0.178008452,0.230703771,0.243524417,0.230630562,0.262862921,0.205490246,0.284294516,0.268230915,0.242801353,0.220443323,0.159808412,0.282054097,0.22822018,0.301983655
434.0003662,0.063035391,0.0931326,0.156313226,0.114051282,0.180684015,0.233915642,0.247032002,0.23405394,0.266845644,0.208419427,0.288111717,0.271976262,0.246361673,0.223614901,0.162264839,0.286281675,0.231762841,0.306674898
432.9988708,0.064006552,0.094542503,0.158365309,0.115652986,0.183130488,0.237062752,0.250520051,0.237382069,0.270508468,0.21129185,0.291482627,0.275645971,0.249671772,0.226746514,0.164529607,0.290278167,0.23494488,0.310887098
431.9971619,0.06535618,0.09626919,0.161170155,0.117713004,0.186126083,0.240655929,0.254402041,0.241222873,0.274787694,0.214706987,0.295709044,0.279863387,0.253570169,0.230428353,0.167270809,0.294902891,0.23893635,0.315936267
430.9953308,0.066787809,0.098072775,0.163806468,0.119694077,0.189306766,0.244307578,0.258536249,0.245121494,0.279047757,0.218043178,0.299615145,0.284061879,0.257402331,0.234154582,0.17012541,0.299552828,0.242594272,0.321200311
429.9932861,0.06800054,0.099613488,0.166310161,0.121555746,0.19221653,0.247837126,0.262194485,0.248639837,0.282991469,0.221163645,0.303229451,0.287951469,0.26112929,0.237401202,0.172643945,0.304111689,0.246184468,0.326119632
428.9910583,0.069273144,0.101274103,0.169026166,0.123431996,0.195087507,0.251474857,0.265986204,0.252305985,0.287019849,0.224367037,0.306829184,0.292013735,0.264777571,0.240871921,0.175261408,0.308601171,0.250007004,0.330582202
427.988678,0.070580088,0.103050493,0.17167677,0.125621587,0.198200434,0.254986256,0.269839525,0.256096304,0.291038901,0.227653623,0.310551673,0.295977712,0.268545061,0.244590387,0.178006515,0.313127875,0.253508747,0.335466951
426.9861755,0.072035268,0.105052412,0.174649283,0.127828926,0.201558009,0.258932233,0.274290383,0.260006309,0.29561618,0.231265321,0.314974546,0.300480634,0.272427291,0.248332679,0.180908859,0.318128973,0.25756377,0.340896159
425.9834595,0.073451258,0.106894285,0.177632377,0.1300309,0.204921648,0.263022274,0.278688818,0.264187992,0.300174266,0.234624371,0.319346726,0.304848522,0.276685625,0.25235948,0.183983058,0.323161542,0.261695445,0.346164376
425.019104,0.074770153,0.108688138,0.180550456,0.131962344,0.207791641,0.266562462,0.282603294,0.267778307,0.304100215,0.237809792,0.323480099,0.308929294,0.280266494,0.255822241,0.186600715,0.327579856,0.265206724,0.350949377
424.0160217,0.076125845,0.110525057,0.183409452,0.134041518,0.211024925,0.270396024,0.286623001,0.271710843,0.308238983,0.241153821,0.327822626,0.312903285,0.284187079,0.259671986,0.189476848,0.332446426,0.26876998,0.356062144
423.0127563,0.077559717,0.11236123,0.186588943,0.136170596,0.21420683,0.274167478,0.290742755,0.275583327,0.312516898,0.24460353,0.332285911,0.317271411,0.288121522,0.263216496,0.192300439,0.337279409,0.272726327,0.361162186
422.0093689,0.079320408,0.114520654,0.189932555,0.13872093,0.21799165,0.278555036,0.295330703,0.280090421,0.317598432,0.248479813,0.337233007,0.322270453,0.292571873,0.267664135,0.195596606,0.342713237,0.277198285,0.366760343
421.0057373,0.080804542,0.116663806,0.193294868,0.141154066,0.221633151,0.282866925,0.300171286,0.284361959,0.32248053,0.252259195,0.342400968,0.326770932,0.296849042,0.271831602,0.19885321,0.348184377,0.281371534,0.372809589
420.0019836,0.082446307,0.118896008,0.196612865,0.143537521,0.225045562,0.287146986,0.304747224,0.288769096,0.327327699,0.256002158,0.34711355,0.331628859,0.301129371,0.275979608,0.201932818,0.353395939,0.285619915,0.378447413
418.9980774,0.083945893,0.120952353,0.2000027,0.145842686,0.228535608,0.291200072,0.309187919,0.29314056,0.331853092,0.259641588,0.352044106,0.336286694,0.305422574,0.280067474,0.204897046,0.358657926,0.289601892,0.384028077
417.993988,0.085741393,0.123136088,0.203418434,0.148363963,0.232058331,0.295595527,0.31385541,0.297678143,0.336648732,0.263340533,0.35700953,0.340997309,0.309881866,0.284079015,0.20817399,0.363775283,0.2939004,0.389717519
416.9897156,0.087092035,0.125194192,0.206668615,0.150617048,0.235800415,0.29997775,0.318427444,0.301909596,0.341234088,0.267189384,0.362176567,0.345878005,0.314259619,0.288460523,0.211228386,0.369243383,0.29828617,0.395825207
415.98526,0.089120969,0.127924547,0.210897818,0.153749242,0.240113333,0.305019289,0.323920608,0.307078779,0.347359479,0.271907598,0.36835584,0.351534426,0.319537729,0.293506563,0.215084106,0.375717253,0.303521812,0.402748436
414.9807129,0.091013916,0.130222455,0.214810893,0.156424135,0.244009182,0.30985865,0.329189718,0.311776012,0.352576554,0.275959522,0.373880982,0.356965631,0.324289352,0.29822892,0.218533695,0.38161552,0.308495522,0.408822358
414.0145874,0.092744,0.132422775,0.218084663,0.158988744,0.247680321,0.314180195,0.333922446,0.316662312,0.357398897,0.279910207,0.378930032,0.361670405,0.328974694,0.302341551,0.221791312,0.386823714,0.312766135,0.414663851
413.009613,0.094436318,0.134909779,0.221939817,0.161610872,0.251391351,0.318793535,0.338883579,0.321196109,0.362631381,0.284091413,0.384298742,0.36702162,0.333755493,0.3069534,0.225167185,0.392697036,0.317630708,0.420982003
412.0045471,0.096563108,0.137401402,0.226058275,0.164544687,0.255670339,0.323687077,0.344352007,0.326557934,0.368608266,0.288719624,0.390298158,0.372854888,0.339128524,0.311976641,0.228850812,0.399031818,0.322614819,0.428036481
410.9992371,0.098623246,0.140245602,0.230459943,0.167644754,0.260347486,0.329376191,0.350405365,0.332178772,0.374682069,0.293738902,0.396823853,0.37916714,0.344878256,0.317299843,0.232873753,0.405877441,0.328324229,0.435562223
409.9938049,0.100558318,0.142775714,0.234343082,0.170570642,0.264599174,0.334461987,0.355806261,0.337301791,0.380385041,0.2980465,0.40291208,0.384914875,0.350194663,0.322294205,0.236581117,0.412076294,0.333538413,0.442500651
408.9881287,0.102371618,0.145401359,0.238288254,0.173339084,0.268722296,0.339472085,0.361166954,0.342389792,0.386124551,0.302934468,0.408703387,0.390565634,0.355240643,0.326987386,0.240291193,0.418193549,0.338427663,0.449225515
407.9824524,0.104499303,0.148082912,0.242556885,0.176416636,0.27303493,0.344637543,0.366912007,0.347825646,0.39207089,0.307630658,0.415123314,0.396646857,0.360572249,0.332059532,0.244210124,0.424982101,0.344023079,0.456415266
407.0151978,0.106753521,0.15109618,0.247217521,0.179757416,0.277776927,0.350309819,0.373032928,0.353762537,0.398729831,0.312608093,0.421805114,0.40328753,0.366758078,0.337683857,0.248337358,0.432168514,0.349874735,0.464212537
406.0090637,0.109210864,0.154348031,0.252483636,0.183458552,0.283055097,0.357164115,0.380282968,0.360449374,0.406248421,0.318733543,0.42980662,0.41080758,0.373507172,0.344184279,0.253293455,0.440271229,0.356728703,0.473333299
405.0028076,0.111860491,0.157744467,0.257650942,0.187210172,0.288844705,0.363642335,0.387251586,0.367056996,0.413633287,0.324468792,0.43732065,0.418093741,0.38043344,0.350399703,0.258329779,0.448321044,0.36321488,0.481994242
403.9963989,0.11369288,0.160368398,0.261645883,0.189948216,0.293170095,0.368628055,0.392883241,0.372539252,0.419249296,0.329329163,0.443944812,0.424052328,0.385839164,0.355605006,0.262355208,0.454679608,0.368598521,0.489458531
402.9897461,0.115996204,0.163247556,0.266449362,0.193348438,0.298051536,0.374692202,0.399336755,0.378761768,0.426040173,0.334676981,0.451065153,0.431026876,0.391901493,0.361493588,0.266644865,0.46206519,0.374574602,0.497647435
401.9830017,0.118747763,0.166666865,0.271769077,0.197318867,0.303954125,0.381654412,0.406730533,0.385951936,0.433915228,0.34098807,0.459421545,0.439000994,0.399066985,0.368029684,0.271589398,0.470973462,0.381493151,0.506632507
401.0148315,0.121646851,0.170425445,0.277553111,0.201560527,0.309749991,0.388859838,0.414734006,0.393368632,0.442472041,0.347389787,0.46771133,0.447205365,0.406738013,0.375186771,0.276748061,0.479711622,0.389159709,0.516440332
400.0077515,0.124023341,0.173778355,0.282920837,0.205333561,0.315720409,0.395503253,0.42206648,0.40032804,0.44978416,0.353500009,0.475865066,0.455079585,0.413804144,0.381718546,0.281801373,0.488393396,0.395942986,0.525427163