Wavelength (nm),30 s,60 s,90 s,120 s,150 s,180 s,210 s,240 s,270 s,300 s,330 s,360 s,390 s,420 s,450 s,480 s,570 s,600 s
430,6.352369308,3.434652567,3.764574289,4.68969965,4.369420528,5.265841007,5.277056694,5.695588589,5.904491425,5.237649918,5.699514866,4.597112656,5.748725414,5.67180109,5.741402626,5.895576,5.913247585,6.347804546
431.0599976,7.136566639,3.426189184,3.833007097,4.797499657,4.429599285,5.455149651,5.521338463,5.980321407,6.180793762,5.68207407,5.850655079,4.807240009,6.047841549,6.132394314,6.060958385,6.35331583,6.405993462,6.797718525
431.9599915,7.539068222,3.733679295,3.935485125,5.158370972,4.605379105,5.69405365,5.858201504,6.419445992,6.529540062,6.006735325,6.191726685,5.158621788,6.639822483,6.526717186,6.416929722,6.637913227,6.828986645,7.03413105
433.0299988,8.444841385,3.829540968,4.206947327,5.548434258,4.915417194,6.0256567,6.236855984,6.644308567,6.911922932,6.297773361,6.618775845,5.534657001,7.003883839,6.83983326,6.68759346,7.102266312,7.234807968,7.486973286
433.9299927,8.856041908,4.136878014,4.271944523,5.8124547,5.075173378,6.263874054,6.389338493,7.037013531,7.320538521,6.856787682,7.313285828,5.897553444,7.481592655,7.40577507,7.285103321,7.399950981,7.612043381,7.813751698
435,9.664992332,4.366181374,4.596642017,6.041875362,5.580245018,6.66169548,6.878899574,7.672879219,7.798568726,6.984652996,7.374706268,6.134997368,7.914680004,7.751690865,7.537641525,7.745986462,8.067378998,8.336816788
436.0599976,10.66620445,4.542006493,4.929890633,6.315534592,5.762459755,7.082759857,7.234115124,8.048391342,7.944631577,7.621213436,7.902028084,6.619825363,8.351733208,7.889128208,8.293433189,8.542255402,8.645572662,9.134390831
436.9599915,11.26138496,4.68240118,5.128437996,6.708694458,5.940387726,7.296170235,7.62942028,8.352519989,8.56953907,7.953505039,8.389816284,6.94590807,8.761157036,8.627479553,8.633932114,8.721606255,9.196306229,9.631650925
438.0299988,12.1628437,5.112008572,5.265238285,6.907039165,6.468417168,7.905852795,8.120010376,8.779856682,9.074680328,8.306483269,8.824016571,7.177544117,9.286142349,9.07557106,8.964596748,9.192230225,9.539395332,9.991270065
438.9299927,13.09231186,5.285011768,5.597579479,7.40038538,6.53739357,8.076145172,8.447768211,9.189837456,9.479000092,8.647346497,8.912968636,7.355206966,9.661090851,9.60804081,9.385245323,9.759277344,10.05230427,10.39600182
440,13.82108307,5.464356899,5.803437233,7.551885128,6.772895813,8.53717804,8.565896034,9.447395325,9.712491989,8.964917183,9.674562454,7.714892387,10.02046585,9.857784271,9.810897827,10.10595798,10.23982716,10.78800106
441.0599976,15.20687294,5.747600079,6.020724297,8.075844765,7.121957302,8.845775604,9.23604393,9.990441322,10.32225132,9.37305069,9.986908913,8.268095016,10.37001324,10.29080486,10.20441437,10.42993355,10.92710972,11.38350964
441.9599915,16.20658875,6.002203465,6.201578617,8.077485085,7.316343307,9.156929016,9.483037949,10.45789433,10.44315052,9.58416748,10.26031208,8.447820663,10.79918575,10.64237404,10.62723064,11.0452652,11.09784222,11.51012039
443.0299988,17.0344696,6.34292078,6.301041603,8.304953575,7.345830441,9.432743073,9.802677155,10.93801308,10.96721363,10.0640564,10.86881638,8.523580551,11.17448711,11.09065723,10.8102026,11.5808239,11.68511677,12.39708805
443.9299927,18.1744976,6.461872578,6.506646633,8.681516647,7.784321785,9.87526989,10.27691746,11.16577339,11.19448948,10.25043392,11.1109066,8.950440407,11.60107517,11.4627161,11.35905075,11.74612331,11.94251919,12.48971367
445,19.72146988,6.782160282,6.990233898,9.130021095,8.124867439,10.3526144,10.4179821,11.42719555,11.75742054,10.72441483,11.65323067,9.339154243,11.98002625,12.15178776,11.76174068,12.38183308,12.4491539,12.93895054
446.0599976,20.98827934,7.119832039,7.140832424,9.217142105,8.466142654,10.84058571,10.92205811,11.81912518,12.34131622,11.13898659,11.93501282,9.577766418,12.50200748,12.25420094,12.36583805,12.88475609,13.10233307,13.50451279
446.9599915,22.00928116,7.647344112,7.527899265,9.641271591,8.603081703,11.03075218,11.25036049,12.53428173,12.9109726,11.76314449,12.33344173,9.906424522,12.9524622,12.70942974,12.78766537,12.86134148,13.24809837,14.05639076
448.0299988,23.56469536,8.098834991,7.657177925,10.11874294,8.809962273,11.51053429,11.80182362,12.69218159,13.14063454,12.03878307,12.78037262,10.2382679,13.60506916,13.45707035,13.21415806,13.68693161,14.00990963,14.37097836
448.9299927,25.14139938,8.425091743,7.901135921,10.45211697,9.05267334,11.76309013,12.05965042,13.18876457,13.36745167,12.42272663,13.27213383,10.42776871,13.73675442,13.73980618,13.47947598,14.02800083,14.39658451,14.92749023
450,27.00109673,8.861826897,8.358558655,10.76277351,9.637495041,12.26672363,12.54128361,13.67203712,14.06506538,12.56978798,13.74451542,11.01218414,14.45581722,14.05589485,13.87545013,14.3306818,14.91739368,15.80031967
451.0599976,28.4465313,9.680048943,8.766682625,11.13939476,9.745887756,12.80443573,12.85157394,14.22963619,14.79053974,13.17108727,14.17025375,11.07401848,14.90031147,14.36205101,14.38494301,15.00663948,15.33131695,15.80551624
451.9599915,30.58967209,10.05448341,8.919410706,11.49356461,10.35005474,12.55297184,13.23173714,14.70165825,15.04167557,13.69314289,14.33001137,11.55133915,15.43913364,14.97010136,14.73632622,15.37089443,15.59493542,16.30884743
453.0299988,32.43424225,10.70620728,9.500720024,12.02321529,10.53794765,13.27779961,13.73394108,14.71469307,15.52335548,14.00714493,14.5551672,12.00278282,15.82124805,15.39766788,15.28152561,15.9505024,16.22927094,16.90916252
453.9299927,33.93643188,11.60379791,9.788684845,12.22647095,10.67098141,13.53003502,13.80935574,15.35503387,15.82391167,14.38963413,15.20610237,12.33197308,16.00667763,15.84640694,15.44930935,16.18661118,16.590662,17.11178017
455,37.11311722,12.00626945,10.14918804,12.72219563,10.83034134,14.27678776,14.27707672,15.6989975,16.45547676,14.72658062,15.57532978,12.63627148,16.69407845,16.42588615,16.03774261,16.75178146,16.7775898,17.59895515
456.0599976,39.2808876,13.22978306,10.65799046,12.85979366,11.15848637,14.25967216,14.80516911,16.55793953,16.9083004,15.18393707,16.50976563,12.84155846,17.10961914,16.99992943,16.55516624,17.18638229,17.66658974,18.210495
456.9599915,41.15777588,14.195714,11.03856277,13.20446682,11.55464172,14.82497692,15.31318378,16.58763313,17.22011566,15.58417702,16.61709023,13.13726902,17.59466553,17.2189312,17.0557003,17.8927002,18.05565262,18.78523445
458.0299988,44.00715637,15.31839371,11.53573513,13.83789635,11.74233341,15.15706444,15.77748871,17.3050766,17.77646446,15.99412441,17.08527946,13.70153809,18.0872879,17.83115005,17.53446388,18.11567497,18.23512077,18.89195824
458.9299927,45.75832367,16.24664307,12.14871788,14.30791664,12.18445683,15.50458908,15.98061848,17.99497795,18.2342701,16.46442413,17.73652458,14.03645515,18.61521721,18.03686142,17.65862465,18.65102959,18.96751785,19.78779602
460,48.91945267,17.89701843,12.91177654,14.76460552,12.57621098,16.09799004,16.25619507,18.29969788,18.77679253,16.93581581,18.07341576,14.37913322,19.06952286,18.58255959,18.17996025,18.90486336,19.35931206,20.22182465
461.0599976,51.92284775,19.70908356,13.79992008,15.32339764,12.91656399,16.39518356,16.77740479,18.60202599,19.1885643,17.39809227,18.51978111,14.76007843,19.49152565,19.08032799,18.72688675,19.3128376,19.51221657,20.41649437
461.9599915,54.73141861,21.6273632,14.26740932,15.64389801,13.06665802,16.88256454,17.22492409,19.01384163,19.76422501,17.51081467,18.80541039,14.96710682,19.81967926,19.47755051,19.25220871,19.72288895,20.18607712,20.98913383
463.0299988,56.2137146,23.15115547,15.08608818,16.28076744,13.65412331,16.97999001,17.45520973,19.38511658,20.30547714,18.07345963,19.38290405,15.32382202,20.43180275,20.12491035,19.73476982,20.51206398,20.61070824,21.63249588
463.9299927,58.75312805,24.86878395,16.16696548,16.80136871,13.63732624,17.36680984,17.96288109,20.06821251,20.2710762,18.31715202,19.87017059,15.28589344,20.63098335,20.38858223,19.58669472,20.37639999,21.26323128,21.78107643
465,61.53162384,27.40444183,17.56386185,17.53665733,14.04686928,18.0505085,18.08250237,20.15450478,21.04331589,19.02156258,20.05686188,15.73621082,21.08873177,20.89720535,20.13370323,20.97540665,21.08418655,22.14817429
466.0599976,63.71085358,29.81543922,18.54795265,18.32011223,14.55866432,18.36015511,18.62470055,20.46218491,21.51837921,19.21001244,20.70250702,16.25662994,21.80563164,20.88461876,20.72029686,22.00002861,21.69822502,22.55054092
466.9599915,66.04241943,32.06213379,19.85231781,19.04607964,14.93015671,18.64710999,19.04677963,21.08467674,21.78209686,19.73571587,21.2244339,16.71620369,21.98482895,21.66693115,21.25605202,21.86687279,21.96776581,23.06964302
468.0299988,67.57020569,35.28178406,21.9074707,19.71264076,15.39983845,19.07261848,19.54504776,21.27318954,21.84425926,19.72179222,21.41225433,17.00938606,22.44400597,22.00397301,21.40715408,22.35523987,22.54262543,23.36294556
468.9299927,68.45755005,37.06903458,22.74079514,20.37541771,15.61074162,19.31029892,19.66622353,21.71482277,22.36929703,20.21220016,21.61634827,17.02612305,23.0088501,22.30306625,21.73711205,22.45053673,22.67319107,23.68041992
470,70.09230804,40.39513397,24.6208744,21.6159153,16.1928997,19.89677811,20.18063545,22.13046074,22.90326881,20.64544106,22.30163956,17.38808823,23.39424324,22.51236916,22.12103653,23.15000725,23.21848679,24.23243713
471.0599976,72.17554474,43.96809006,27.13778114,22.98044014,16.85991478,20.3898468,20.45076752,22.47226906,23.26895905,20.91695976,22.48264694,17.52159691,23.6582222,23.25235176,22.34204292,23.2169323,23.4921627,24.21185112
471.9599915,72.80579376,47.19937897,29.62312508,24.4535141,17.45171165,20.62530708,20.95118904,22.73553848,23.55117607,21.19967461,22.85847282,18.05575371,24.12264633,23.50056839,22.82623482,23.93049622,23.80060005,24.43432999
473.0299988,73.3974762,50.67749023,31.97623825,25.93124962,18.04144859,21.24019051,21.34476662,23.18785095,24.15294456,21.61026764,23.57502556,18.59335899,24.59237671,24.0061245,23.68559265,24.36354828,24.15875053,24.8949337
473.9299927,73.08104706,54.15705872,34.61268616,27.11851883,18.89162254,21.83596611,21.71765709,23.60375404,24.28312874,22.29246712,23.56360054,18.65074158,24.22044182,24.10606194,23.63970566,24.57110023,24.51123047,25.23322678
475,73.55128479,58.10173035,38.14806747,29.47087479,19.90802383,22.18646812,22.33174896,24.26869965,24.91760635,22.78107262,24.18543243,19.10377884,24.99472618,24.17461777,23.81117821,25.35522652,24.88244629,25.58906746
476.0599976,73.82758331,62.03889847,41.97026825,32.29640579,20.88193893,22.81629944,22.58582115,24.8461647,25.53046417,23.32463837,24.46160507,19.52534294,25.92684174,25.08293915,24.5953064,25.75415039,25.44066238,26.27733231
476.9599915,73.28639221,66.16802979,45.53587723,34.92802429,22.03433228,23.74986458,23.77367401,24.97954369,26.05812645,23.41571808,25.2092247,20.18724251,26.3341732,25.60528564,25.27152443,26.00432396,25.79109192,26.16182899
478.0299988,72.37874603,69.84016418,49.76239014,37.63774872,23.80163383,25.14141464,24.17058372,25.81072807,26.64129448,24.02233505,25.64006805,20.3822422,26.80672836,26.09090424,25.79275322,26.28605843,26.06576538,26.71020508
478.9299927,72.00648499,73.07447815,53.45118713,41.18021393,24.8713398,25.89529228,25.02367592,26.47618484,27.16811371,24.42442513,26.15734291,20.65638351,27.17339134,26.07995224,26.06126976,26.96213341,26.5625515,26.97390556
480,70.55461884,77.5725708,58.78237915,44.57115555,26.62308884,27.2792511,25.70439911,26.97215271,27.45229721,24.68762016,26.72877312,21.25669861,27.44193459,27.10871124,26.28167534,27.16633034,26.97592926,27.40592384
481.0400085,69.45427704,80.9781189,63.43213654,49.0765419,28.97303581,28.59660149,26.9937706,27.84908104,27.93257904,25.03673172,27.13489532,21.59500504,27.97270203,27.00833321,26.67600441,27.78836632,27.33761787,28.04784203
481.9400024,67.62216187,84.20853424,68.16453552,52.38973618,30.68419647,29.70856094,27.41624451,28.50805664,28.46125603,25.61539268,27.53981972,22.17844009,28.3578186,27.44719887,26.85382843,27.83425713,27.59558868,27.88809204
482.980011,65.54086304,86.89833069,73.06616974,57.43333817,33.3496933,31.27743721,28.38053513,28.96649551,29.17263794,25.9314518,27.84443665,22.13452339,28.64855957,27.46065903,27.17143822,28.25652313,27.47311401,28.18214798
484.019989,62.98585129,89.71346283,79.19527435,63.80190659,35.88664627,32.83064651,29.34935379,29.66420937,30.23167419,26.27691269,28.16765022,22.11136246,28.96671104,27.67063332,27.60528946,28.14084244,28.0972023,28.30219269
485.0700073,60.46204758,91.83337402,84.20469666,68.8392334,39.27108383,35.28810501,31.03152657,30.50649452,30.42340088,26.49596024,28.6632843,22.28467178,29.00755692,28.04793358,27.4252224,28.19561768,27.89048004,28.27718163
485.9700012,58.59941101,94.02765656,89.54718018,73.99131012,42.25704956,37.40620804,32.14047623,31.16906929,30.61045837,27.07477951,28.66763687,22.45915031,29.12493134,28.41940308,27.80964851,28.40796661,28.16635132,28.37145042
487.0100098,56.80129242,94.57118225,94.66156769,81.02334595,46.35704041,40.10732269,33.94373322,32.43187332,31.49082184,27.46028328,29.03003883,22.40944099,29.73260689,28.23015022,28.32114792,29.19013405,28.05706215,28.33798599
488.0499878,53.63586426,97.10764313,100.4399414,88.38247681,50.772995,43.48345947,36.12955093,34.00751495,32.78417969,27.847332,29.3030262,23.00278664,29.45291901,28.43785095,27.91340256,28.70730591,28.52434731,28.76294136
488.9500122,51.85638046,96.82285309,105.8450089,95.46671295,55.01860428,46.63513184,38.83433151,35.50140762,33.88441467,28.57274246,30.43180275,23.45900345,30.21139908,29.06726646,28.4886055,29.48752213,28.83989906,28.74429893
490,49.27080917,97.52124786,111.4252701,103.4212646,61.22393036,50.57679749,41.46256256,37.48592758,35.73919678,30.06498909,30.67149544,23.90097427,30.9501133,29.42688179,28.91435051,29.85664177,28.6012764,29.07676125
491.0599976,47.51029587,97.34216309,115.9838409,112.196167,66.54698181,56.39267731,44.76903534,39.77700424,37.29795456,31.20028877,31.82311821,24.21974754,31.79976654,30.11838531,29.30367851,30.49138069,29.42073441,29.50029182
491.9599915,45.85295868,97.66203308,119.3575363,118.1517563,72.07949829,59.45025635,47.55376434,41.75880432,38.79977798,31.76131439,32.42101288,24.91993904,31.84567833,30.43083954,30.2482872,30.68790436,30.00107765,29.89970207
493.0299988,44.38422394,96.0592041,124.2116089,125.8565903,77.82834625,65.23832703,51.59323883,44.62279129,40.86460495,33.29360199,33.81679916,25.86110878,33.06529617,30.99479485,30.46456718,31.20736504,30.08014297,29.93776321
493.9299927,42.48567963,95.49842834,128.4230194,133.6865082,85.12039948,70.98404694,56.15428162,48.33238983,43.65954208,34.99703217,35.43063736,27.09784508,33.72225571,31.89070129,31.24290848,31.98484612,30.68519974,30.51325417
495,40.56863403,92.7693634,131.3456573,142.8283081,92.48212433,78.09791565,61.26493835,52.01063156,47.32987976,37.32102585,36.76882553,28.20499992,35.16097641,32.92148972,32.05540466,32.76769257,30.90019417,31.14760971
496.0599976,39.14204407,91.07398987,133.5019226,151.6892548,101.6492844,86.17159271,67.96268463,56.59812164,50.28263855,39.40005875,39.9731636,29.70992851,36.8218956,33.84566116,33.28316498,33.76622009,31.94070244,31.59648895
496.9599915,37.82894135,89.02701569,136.4738159,158.0023956,107.7780533,92.91908264,73.1805191,60.4581337,53.5434227,41.89913177,41.28595352,29.85006523,37.24523544,35.07260132,33.3187561,34.33062363,32.62985992,31.96518898
498.0299988,36.2631073,87.7095108,138.0330658,165.4288483,116.7210999,100.8302383,79.91981506,66.0110321,58.20399475,44.26527405,43.75244522,32.17700958,39.56287384,36.27612305,35.26302719,35.44437408,33.37668228,32.96338272
498.9299927,35.06623459,83.89258575,138.7947845,172.6882324,124.1080017,109.3953629,87.5249176,71.24878693,63.14909363,47.79646301,46.11293411,33.99577713,40.87255859,37.86742783,36.52775574,36.40229797,34.61318588,33.47861099
500,33.78555298,80.98722076,138.7344818,179.8280182,132.187912,119.8671951,95.41377258,78.83411407,68.83192444,51.9545784,49.7346611,36.27811813,43.64165878,38.96292114,38.1026001,38.62293243,35.59112167,34.70224762
501.0400085,32.88560104,77.80688477,138.7326508,185.2865295,141.2886353,130.0511322,105.3385773,86.76332855,76.43564606,56.52300644,53.93783188,38.72767258,46.6645546,41.02930832,40.26002121,40.49401093,36.945961,35.91546631
501.9400024,32.23542023,75.4963913,137.9947052,190.036438,147.9542999,139.0963898,113.4844131,93.37980652,81.69303131,60.51104736,58.31945801,41.13940048,48.79120255,43.14427185,41.80878448,41.79701614,38.04037094,36.92455292
502.980011,31.41998482,72.33782959,136.0891724,195.0453033,155.4279938,148.4895782,122.9967957,101.5753021,88.91744232,65.87585449,62.73531342,44.40525055,52.13943863,46.20497894,43.45163345,43.89602661,39.89923096,38.23636246
504.019989,30.25346756,69.1005249,133.6769257,197.3601074,162.8531036,159.4862213,133.6255035,112.0571365,97.66761017,72.22650146,68.3095932,48.60624695,56.56856155,49.59799576,46.5643692,46.83981323,41.9228363,39.98855591
505.0700073,29.46022797,65.17520905,130.1939697,198.9085083,169.6686859,170.6289368,143.7405396,122.444313,107.3052139,79.48991394,74.46915436,52.38568115,61.21765518,52.4047699,50.21998596,49.72595596,44.61809921,41.63744354
505.9700012,28.8492527,62.04156113,127.799942,200.983902,174.8558807,178.6447754,154.9759979,131.1229248,116.6922607,86.34011078,80.712883,56.62747192,65.72439575,56.50074768,52.85185242,53.00645065,45.98082733,43.74573898
507.0100098,28.53259087,59.11111069,124.2585678,200.2681122,180.0868988,188.7754822,164.4611511,142.6714783,126.825943,94.05400848,88.89749146,62.15933228,70.97875214,60.7364502,57.51296234,56.51715469,48.76599121,45.97016525
508.0499878,27.53866196,55.21875381,118.4936905,198.5789795,184.8120422,197.1587524,175.9780273,153.9990997,138.1452789,102.2205582,97.12942505,68.14832306,77.72286224,65.5734787,61.56774902,61.07485199,52.74203873,48.4081955
508.9500122,26.99824333,52.74223328,115.4649048,198.0209198,187.813736,203.7160187,185.4453583,163.9009247,146.9091492,110.5417557,103.6910095,73.24184418,83.46676636,69.50905609,66.10006714,64.83148956,54.67839432,50.49884415
510,26.60472298,49.88245773,110.6058044,194.3695374,189.4750977,210.7218781,194.8737335,176.0844421,158.4381256,119.512619,113.9616699,79.46616364,90.86703491,75.90582275,71.21217346,70.05883789,59.42845154,54.35895538
511.0400085,25.85619926,47.55133057,105.509079,190.6512299,190.1227722,217.8310547,203.7705994,185.3361053,170.3413544,129.1562958,123.4704361,86.32992554,98.38529205,82.31390381,77.42228699,75.0697403,63.58580399,57.78429794
511.9400024,25.89166641,44.79581833,100.736969,187.1859894,190.4629364,221.3742523,210.5894012,194.5218506,180.9875946,138.6189423,132.5305176,92.04885101,104.9938965,88.5291214,82.76887512,81.16482544,67.98512268,61.91799927
512.9799805,25.63889694,42.25699997,95.74354553,180.9597473,189.9638977,225.2209625,218.7558899,204.7383118,194.3130341,149.1580963,143.5062561,100.8898849,114.4344406,96.22554779,90.76797485,88.2350235,73.13465118,66.10150909
514.0200195,25.3007164,40.28253174,89.87281036,174.3656921,186.8067322,227.5493622,224.708252,216.5726318,205.2720032,159.8276978,153.7987823,109.7522659,125.2106094,104.0193176,98.57105255,95.51424408,79.67518616,71.03437805
515.0700073,24.86585426,37.68822479,84.51269531,167.5732727,183.1961212,228.137558,229.8802185,224.1297607,215.2008667,167.9415283,164.9702759,117.3171539,135.0358124,113.1448517,106.5301056,103.9364166,85.40860748,76.82498169
515.9699707,24.60251236,36.21062469,81.11006165,162.4870605,180.6140137,229.2021027,233.75354,229.3806305,222.1040649,176.4026947,173.5076447,123.1610413,142.6422882,119.1756973,113.0781479,109.9273682,90.72436523,81.13102722
517.0100098,24.11579323,34.60680389,75.90647125,155.2766113,175.9019623,227.4713593,234.8276672,234.9514771,230.483078,184.8563538,181.4973602,132.1353607,151.9809418,127.7946854,120.7041855,118.0835571,96.73540497,86.35457611
