Wavelength (nm),60 s reaction,90 s reaction,120 s reaction,150 s reaction,180 s reaction,210 s reaction,240 s reaction,270 s reaction,300 s reaction,330 s reaction,360 s reaction,390 s reaction,420 s reaction,600 s reaction
420,22.31990623,21.11704636,16.21613121,18.06827736,16.02686119,16.18050575,13.34661102,14.94298363,7.480342388,13.74065304,12.74366474,13.08511257,10.45548534,10.218256
421.0599976,23.78614426,22.51086426,16.43410492,19.10232735,17.00491524,17.66730309,13.36460876,15.30517864,7.866368771,14.35872841,13.84873199,13.87556744,11.15181446,10.599823
421.9599915,24.9674015,23.78197289,16.94874001,19.96045113,17.79153061,18.47928619,13.86353016,15.86386585,8.171093941,14.9547224,15.0546217,14.42841244,11.54000854,11.35056305
423.0299988,26.23871422,25.71121788,17.16913033,20.74871254,18.94364166,19.22873497,14.40766621,16.21011543,8.725049973,16.01927948,15.90638447,15.45612717,11.9875288,11.59275436
423.9299927,27.94560814,26.70630455,17.8571434,22.10438919,19.64437103,20.47530174,14.90665817,16.78917885,9.251390457,16.57002831,16.32407761,16.41147995,12.64469147,12.40526485
425,28.5245266,28.36594772,18.43469048,22.84651756,20.89809227,21.42886734,15.53372574,17.03040504,9.497692108,17.271101,16.52341461,17.05730247,13.08110905,13.21568298
426.0599976,30.38911057,29.34308052,19.14960098,23.88520813,21.76278687,22.2493248,16.20040321,17.53647041,10.38556576,18.28831291,16.82876396,18.07683182,14.03317833,14.00004864
426.9599915,31.82406044,30.57866287,19.58297348,25.07064056,22.81313133,23.75886726,16.94309616,18.09449196,10.65331745,19.06859207,17.60603714,18.61888885,14.30633736,14.4180603
428.0299988,33.87486649,32.14805984,20.53993988,26.12820625,24.09326935,24.55958748,17.77666092,19.2681694,11.07362461,19.98199081,18.11091995,19.81983566,15.58674526,15.29725647
428.9299927,34.74689102,32.80568314,21.42938614,27.25505066,25.27610397,25.87073708,18.14495087,19.56232643,11.7956934,21.01549149,18.6921196,20.74331665,15.78637218,15.90041637
430,36.78364563,34.34675217,22.1109333,28.67022514,26.02257538,27.07846642,19.45825768,20.36281204,12.48941135,21.69701958,19.16795349,21.61379623,16.83208275,16.66124344
431.0599976,38.58664322,36.81198502,23.17809868,30.13247299,27.39990425,28.37144661,20.30529976,21.28055954,13.03279591,22.67839622,20.38152122,22.7664547,17.41601753,17.67827034
431.9599915,40.48639679,38.38152695,24.31454468,30.68844986,28.75919914,29.78660965,21.18787956,22.07126617,13.47098541,23.60527039,21.23157692,23.6281414,17.90152168,18.05462265
433.0299988,42.40317535,39.02962494,25.21553993,32.69950104,30.30939674,31.2765274,22.35953522,23.36629486,14.50397778,25.32429504,22.05768394,24.77321243,18.88362694,19.13147354
433.9299927,43.32304001,40.19821548,25.92972374,33.74757767,30.99860191,32.20117188,22.2316227,24.18087006,15.04251194,25.44129753,23.07234764,25.66952515,19.90604401,20.00794983
435,45.2600441,41.35310745,26.90132904,34.99552536,32.14093399,33.8278656,23.06126976,24.93392944,15.89417076,26.52858734,23.36112785,26.32362938,20.10255814,20.76463699
436.0599976,46.86473083,43.57058334,27.9734211,36.05767441,33.79382706,35.21498871,24.87493515,25.56780815,16.04916763,27.86572838,24.77834702,27.82018089,20.54351044,21.50917053
436.9599915,49.02810287,44.96780777,28.96353722,37.57863235,34.57814789,35.96302795,25.37626076,26.31080818,16.60505867,28.36767769,25.83330536,28.93151855,21.59136009,22.61781693
438.0299988,50.9507637,46.97141266,29.83384514,39.39928436,36.0193634,37.36381531,26.3697319,27.82426262,17.57707024,29.85691452,26.74228859,29.7165947,22.5794735,23.42519569
438.9299927,53.14208603,48.3355751,30.67699051,39.6846199,37.27440643,38.41728973,27.11177063,27.97174263,18.37709045,30.79972649,27.56111526,30.39159775,22.82613182,24.19056129
440,54.72860718,50.11661911,32.31705475,41.33314896,38.70735168,39.40448761,27.64210129,29.42117119,19.20758438,31.77973175,27.99785233,31.52261353,24.23760223,25.23099709
441.0599976,55.97293854,51.70034409,33.26032639,43.34019852,40.25068665,41.16960526,29.15722466,30.2484436,19.46517944,32.49537659,28.96387482,32.74598312,25.0735302,26.01979065
441.9599915,57.97211456,52.97463226,34.362957,43.8598671,40.96138,42.6524086,29.50468063,30.82674408,19.90757942,33.48169327,29.91690636,33.36031723,25.68514061,26.82091522
443.0299988,60.25371552,55.41450882,35.40182877,45.69973755,42.67412567,43.84011459,30.33885956,31.65624619,21.39334869,34.92751312,31.25900841,35.05264664,26.48813057,28.30904198
443.9299927,62.1317215,56.60795593,36.47659302,46.78580475,43.97196579,45.29685211,31.33591652,32.44832993,21.38879585,35.67776871,32.02771378,35.39170074,27.48544312,28.62619209
445,64.09371185,57.38939285,37.64222717,48.5932045,44.09273529,46.54455566,32.23819733,33.84782791,22.16609192,36.92869568,32.88594818,36.99428558,28.24610901,29.21185112
446.0599976,66.3633728,59.92915726,39.13043594,50.00203705,46.85364914,47.80847549,33.21283722,34.63064957,22.95943832,38.19913483,33.73501968,38.02796173,28.82200432,30.36118126
446.9599915,67.78408813,61.61879349,39.97012329,50.91252136,47.45953751,49.06882095,34.1791153,34.92826843,23.36959648,39.00820923,34.71442795,38.766819,29.75999641,31.22207832
448.0299988,70.07478333,63.30134583,41.36536026,52.84921646,49.24199295,50.33174896,35.64637756,36.86133957,24.50668716,39.94836044,35.66691971,39.56261826,30.72212982,32.0492363
448.9299927,71.48360443,64.33414459,42.41567993,54.01855469,50.54207993,52.53215408,36.0187645,36.75567245,24.80428696,40.72364807,36.08941269,40.97742844,31.20824242,33.49150467
450,73.28659821,66.2256012,42.89010239,55.6219101,51.79036713,53.64287186,37.57087326,38.11303711,25.71983337,41.59283066,37.5457077,41.47248077,32.26604462,34.19630432
451.0599976,76.04225159,68.2121582,44.91345215,57.34469986,52.88582611,55.01119614,37.99156952,39.17556,26.64180374,42.77811813,38.44175339,43.48551941,32.52709961,34.86991501
451.9599915,77.81958771,69.73081207,45.31362915,58.31614304,54.27763367,56.12565231,39.10124588,39.70310211,27.00176811,43.81422424,38.96879196,44.34290695,33.77838516,35.74633789
453.0299988,79.26351929,71.66841888,46.2907753,59.66723633,55.59295273,56.66963196,39.1794548,40.78169632,27.53444862,44.67089081,40.49587631,45.03982544,34.24438095,37.05696487
453.9299927,81.2895813,72.5076828,48.40235519,60.42859268,56.57911682,59.27331161,40.45962524,41.57066345,28.30265808,45.55168533,41.04648972,45.87879944,35.58100128,37.17314148
455,83.63262177,75.18448639,48.37785339,61.59547424,58.2813797,59.74323273,41.71828461,42.44758987,29.04260445,46.61106873,42.16401672,47.0854454,36.40356827,38.93268585
456.0599976,85.14720154,77.03659821,49.46895599,63.9459343,59.75868988,61.53474045,42.26522446,43.79372787,29.97855377,47.79325104,42.44180679,48.16188049,37.39963913,39.18933487
456.9599915,87.15296936,78.86217499,51.26478958,64.81292725,60.44032669,61.81628418,43.12308121,44.18120193,30.66000748,48.54130173,43.78305817,49.23978424,37.37281036,40.28873062
458.0299988,88.95304108,79.50894928,52.03993988,65.63315582,62.44109726,63.79447937,43.84637451,44.95093918,31.22057343,49.76437378,44.97096634,50.43564606,38.46627426,41.14477921
458.9299927,91.27842712,81.96517181,53.35218048,66.84791565,63.36355209,64.39797211,44.65552521,45.54838181,32.23113251,50.12412643,45.72774887,50.52922821,39.18479919,42.31170654
460,92.84170532,82.60565948,53.97042465,68.45560455,64.18109894,65.99034882,45.79101181,46.8748703,32.64316177,51.15196609,46.67947388,52.06708908,40.31964874,42.9241066
461.0599976,95.0860672,84.56093597,55.05680847,69.3192749,65.72947693,67.96373749,46.69078827,47.61982346,33.21401215,51.83322906,46.96829605,52.39570999,41.17544556,44.2977066
461.9599915,95.84116364,84.48159027,55.59943008,69.35599518,67.11884308,68.46614075,47.2595253,48.05683517,33.89006042,53.0900116,48.19044113,53.48629379,41.71193695,44.28375626
463.0299988,97.71473694,86.28216553,55.38028336,71.69361877,67.48802185,68.99694061,48.07621002,48.83958817,34.19203186,53.90470505,48.20136642,53.87475586,42.18922424,44.72224426
463.9299927,98.73832703,86.90578461,56.95473862,71.97506714,68.15193939,69.82058716,48.59718323,48.73303986,34.91171265,53.27788162,49.61682892,54.16114044,42.0923233,44.99699402
465,100.0522842,88.55836487,58.03784561,72.22486115,69.3796463,69.94424438,49.0095253,49.8835907,35.22751236,54.17954254,49.90751648,55.14800262,42.55176926,46.13534927
466.0599976,101.7908478,89.95951843,58.15739059,72.66098785,70.84778595,72.10725403,49.6564827,49.05857849,35.37983704,54.75783539,50.40770721,55.59693909,42.36945724,46.05521011
466.9599915,103.1154327,89.68682861,59.82374191,73.41111755,70.88293457,72.0267334,49.78001404,50.7293129,36.18141937,55.00956345,50.60775375,56.20182037,42.9858284,46.50007248
468.0299988,104.8571396,91.12015533,59.2518425,74.43330383,70.88299561,73.02526093,49.96658325,50.01387405,36.35361862,55.92972565,53.31383514,55.72351837,43.7334938,47.27927399
468.9299927,106.2827835,91.42649078,60.86202621,74.70957947,71.65223694,72.98712921,50.80649185,50.46816635,36.69485092,56.46300507,55.19719315,57.11372757,43.51933289,47.5258255
470,106.9579468,93.59396362,60.99061966,76.06797791,71.60549927,73.18415833,50.96545029,51.06407547,37.41485214,56.19493484,56.16488647,57.07128906,43.85957336,47.97931671
471.0599976,109.7165985,94.80517578,61.43441391,76.496521,73.7859726,73.72428131,51.08617401,51.31384277,37.83428192,56.12786484,57.40901947,57.57686615,44.15999222,47.86336136
471.9599915,110.1801758,95.55930328,61.65568161,76.63782501,73.5843811,75.15077209,51.97110367,51.59819031,37.86054611,56.9281311,57.46628189,57.64250565,44.44704819,48.61151886
473.0299988,110.8984985,96.09168243,62.8214035,76.91675568,74.33599091,75.11790466,52.26966095,52.55542755,38.17913818,57.40862274,56.84963989,58.47107315,44.2400589,49.25477219
473.9299927,112.2116241,97.59348297,63.41289139,77.3421402,74.48274994,75.82315826,52.70510101,52.53498077,38.3531189,57.23874664,57.13809586,57.50843811,45.48542023,49.05093384
475,114.6634521,98.20798492,63.61878586,78.24563599,76.06759644,76.24449158,52.50167084,52.73212433,38.86174011,58.2660408,55.18225861,58.85212708,45.36299515,49.48138809
476.0599976,116.4851685,99.6940918,65.16184235,78.16890717,75.65055084,77.43842316,52.88054276,52.58722305,38.71442032,57.87663651,54.05965042,59.04944229,45.15445328,49.80239105
476.9599915,117.594017,99.9447403,64.61754608,79.71038055,76.14928436,76.5151062,52.99507141,52.90786362,39.36764908,57.77614975,54.0092926,58.78921127,45.46827698,50.03056717
478.0299988,119.6365585,101.593338,65.8627243,80.07001495,77.30896759,77.10808563,52.98793793,52.78007126,39.34360504,58.23501587,53.56742477,59.25334549,45.89113235,50.76330566
478.9299927,121.8406982,102.239296,66.09073639,80.93827057,76.88772583,78.87825775,54.01844406,53.11623764,39.29666901,58.22876358,54.13970184,59.82595062,46.1639595,50.17790222
480,123.2769547,103.3886414,67.91561127,81.64575195,78.10190582,77.98745728,54.586689,53.84300613,39.9668045,58.32702637,54.54891586,59.44850922,46.03714752,50.39227676
481.0400085,125.8224411,104.7702026,67.71871185,82.45663452,79.04322815,79.08647156,54.68155289,54.24853516,39.74924469,58.53191757,54.62826157,59.861866,46.51452255,50.39861679
481.9400024,127.1483765,106.7534637,68.69967651,82.90609741,78.61811829,78.83082581,54.78572845,54.24969482,39.83287811,59.4785614,55.0227623,59.14230347,45.973423,50.41576004
482.980011,130.5895844,107.3593063,69.71317291,82.95275879,79.83707428,79.15428925,55.64382553,54.40563202,40.16722107,58.65319824,54.33572769,59.03767395,46.70492172,51.38533401
484.019989,132.26297,110.0874023,70.27600098,84.10758209,80.54083252,81.17073822,55.15457535,54.23301315,40.06361008,59.58238602,54.45026398,60.77494049,46.95643616,50.91721344
485.0700073,136.3773346,111.1174088,72.21586609,85.19308472,80.84348297,81.33355713,55.68512344,55.23818588,40.22351837,58.68416977,55.44647217,59.89167786,47.7572403,51.39035797
485.9700012,137.8721313,112.1064224,72.40506744,86.41053009,81.99940491,80.98371124,55.78994751,55.21768951,39.86922455,59.68344498,54.65632629,59.87661362,47.60345078,50.86171722
487.0100098,142.3082428,113.3487778,73.5764389,87.83216858,83.30067444,81.70328522,55.72615814,54.58491898,40.10139084,60.61553192,54.91854095,60.49089813,47.34018326,50.72434235
488.0499878,144.3816223,117.0410385,76.060112,88.21107483,84.07457733,82.20388031,56.837883,54.79901505,40.01018906,60.30092621,54.76178741,59.85261154,47.33008957,50.90971756
488.9500122,149.4139557,119.8985901,76.2600174,90.60825348,85.04847717,83.5349884,57.33721161,56.22712708,40.1023407,59.52675247,55.48783493,60.81957245,47.74581528,50.74040985
490,151.9583282,121.2858887,77.34118652,91.30073547,85.06344604,84.07424164,57.72593307,55.50461578,39.3775177,60.44451141,55.90226746,60.49648285,47.69305038,50.56888962
491.0599976,156.7663727,124.4304504,79.38245392,92.90504456,87.29864502,84.19852448,57.66603088,55.77636337,39.93359375,61.02444458,56.14247131,60.88127899,48.58185577,51.0436058
491.9599915,159.415802,126.9193573,80.69239044,94.01998138,89.03845978,85.68435669,58.89094543,55.83193207,40.57621765,61.5098114,56.61228943,60.40665817,48.6576767,51.11038589
493.0299988,164.460495,128.9236145,82.8711853,95.16889191,90.34169769,86.55235291,58.83982468,56.47965622,40.03820038,61.40022278,56.69049835,60.60028839,48.53108215,50.75691605
493.9299927,168.9871063,132.4142303,85.10183716,97.39019012,91.97011566,87.34954834,59.24384689,57.68099594,40.04602051,61.54272461,56.8883934,60.8533287,49.40839386,50.97158813
495,174.3027039,136.8682709,86.62742615,99.79409027,93.91202545,89.09810638,60.61845398,57.81310654,40.59482956,61.69568253,57.43019485,61.0748291,49.76455307,50.89050293
496.0599976,178.7486572,141.2254639,89.0472641,103.2336349,94.95965576,89.83879089,61.51947021,58.90197754,39.72660446,62.44407272,57.41863632,61.9342804,50.40290451,50.70568466
496.9599915,185.0322876,144.7860565,90.99640656,105.8594742,98.06441498,92.29367828,62.25223541,58.93464661,40.10400009,63.17139435,58.03802872,61.66230774,50.23703766,50.99539185
498.0299988,190.2397614,148.7482758,94.09881592,107.3259964,100.0139313,93.70400238,64.34114075,60.07661819,40.17777252,63.98933411,58.56315994,62.04327774,51.41003799,50.72035217
498.9299927,194.7545624,153.1033936,97.0639801,110.4621582,103.5263748,95.60617065,64.42390442,60.56033707,39.44548798,64.93572235,58.21954727,62.82579803,51.9706955,51.01337433
500,202.2660065,158.5682831,99.69444275,113.3608246,105.8253174,97.31066895,66.36354065,61.56589127,39.91687775,64.87017822,59.56007004,62.18928146,53.01674271,50.79886627
501.0400085,212.0788422,163.4769287,103.7575455,118.466217,110.1148987,99.00632477,67.84181976,63.17775726,40.27025604,65.48638153,59.69701004,63.67945862,53.73729706,50.50406647
501.9400024,215.1932373,170.4507599,107.6854935,121.9281464,113.3855133,103.2046967,69.01100922,64.05230713,39.85601807,66.3006134,59.90452194,63.80648804,54.49322891,51.40838242
502.980011,223.7748566,176.950531,111.9516144,127.0719604,117.3319931,106.8586731,72.10384369,64.99790192,40.28619003,68.41739655,61.54663849,65.07835388,55.69567108,50.49334717
504.019989,226.9124756,183.4754944,117.106926,131.5693359,122.0497742,108.9186249,73.93515778,67.24060822,40.51255417,69.78633118,62.89406204,65.36811829,57.74797058,51.45070648
505.0700073,235.1372528,190.1412048,121.0792389,136.5483551,126.8656082,112.7950134,76.89969635,69.8899231,40.30300522,71.37189484,64.89482117,66.67591858,59.21854782,51.82934189
505.9700012,239.1958618,195.8351288,125.2906647,143.0253601,131.4191589,116.9028854,78.92681122,70.89026642,40.71763229,73.53387451,66.71365356,67.19173431,60.61901093,52.0690155
507.0100098,247.7636414,202.7142334,130.4854889,148.363678,136.4335632,122.0774078,81.7479248,73.9635849,40.44873047,76.40057373,67.91670227,69.13043213,62.41626358,52.27536011
508.0499878,253.4918823,211.4967651,136.7821808,155.6806641,143.6141357,127.3863297,85.09268188,76.36711884,41.55899048,78.78556061,70.39231873,70.95069885,65.42024994,53.23138428
508.9500122,256.4309998,217.1434784,140.2229462,161.5166321,150.137146,132.0033722,88.94124603,78.19480133,42.45371246,81.13011169,72.25495148,73.45993042,67.29728699,52.56153107
510,261.704834,224.2914734,146.8890839,168.685379,157.0049896,138.9141998,93.52695465,81.99775696,42.58320618,84.608078,74.99011993,74.37207031,69.45453644,54.43708038
511.0400085,266.7200623,230.438797,153.174057,176.509552,164.9977112,143.1089172,97.26117706,85.75630951,42.30643463,88.44347382,76.93321228,77.02597809,72.72742462,54.38079071
511.9400024,267.2601318,236.504303,160.872879,184.655426,171.0758362,149.7241821,101.8044662,89.35874939,43.70288467,91.68151093,80.41689301,80.00496674,75.93862152,55.80541992
512.9799805,270.2336731,245.2667542,165.3638916,195.0533295,182.197525,159.6517639,107.6869125,93.21822357,44.66640854,96.15210724,84.67945099,83.17608643,79.66984558,55.99835587
514.0200195,271.5231628,251.9629364,172.4860229,201.9270935,190.925293,166.8478088,113.9690018,99.54122162,45.76236725,102.8565292,88.86217499,86.93856049,84.49619293,57.56616592
515.0700073,271.5088806,257.6227417,177.8440399,213.2894745,201.7081451,177.6234283,120.3282013,105.7840195,47.04000473,107.7588348,93.52237701,89.72710419,88.50333405,59.62913132
515.9699707,270.8648071,260.7084961,183.2775879,218.9412384,209.1333618,184.4263611,126.2127151,109.8326492,47.53065872,113.5186691,97.76734161,94.48021698,92.95149994,61.61309814
517.0100098,267.4460449,266.370636,189.5568085,227.674057,219.9121552,194.7688293,133.0378418,114.8574677,49.02706146,120.3647461,103.1430435,99.59213257,98.41942596,62.38034821
518.0499878,264.7330322,270.0395203,194.3572388,236.8984375,229.6719208,204.6153412,141.4220734,122.5128021,50.96255112,127.1417618,109.2305679,104.1281967,103.7346802,64.60612488
518.9500122,262.1400146,273.1540833,199.8382568,244.8222351,239.729187,212.970932,146.3283691,128.4378357,52.83621597,133.4126129,115.2928009,110.7182693,108.835434,66.91080475
520,258.6434937,274.2539368,202.3077545,253.6962891,248.7723236,225.475174,155.3759308,136.1042786,56.03791809,143.4237823,123.0014954,117.1712646,114.7306519,69.95059204
521.039978,251.9999695,274.8605347,207.4111938,260.6871643,259.8045044,235.8616638,163.3379822,143.3512726,58.19314575,151.4689178,129.7681885,124.2123718,123.9475098,72.52258301
521.9400024,246.3570862,274.6565552,209.1235504,266.5966797,267.5276794,244.1463928,171.142807,150.4633331,59.77302933,159.1426697,136.2367096,129.1887207,128.1585388,75.25617981
522.9799805,237.2457123,273.3198853,212.4537964,273.6225281,275.6517944,255.3222809,180.0605164,159.8018646,63.69087982,171.8271942,145.5614471,140.0187225,136.0777435,78.94047546
524.0200195,231.4033508,270.9911194,215.1035156,279.3262024,285.0105286,265.6216736,187.7952423,167.7063293,67.76470184,182.0082092,155.0771179,147.9423981,144.0290375,84.15715027
525.0700073,223.0918121,267.3991394,216.0870361,284.4217834,293.3770142,274.4589233,196.9552765,176.6715088,71.58325195,194.4567108,165.9541321,157.6479034,153.0855713,88.87016296
525.9699707,213.9732819,263.8050232,216.3578644,290.4473877,298.6322632,283.9663696,204.9484253,185.4181213,75.77835846,203.9207611,173.6091003,164.5545197,158.8895569,93.32917023
527.0100098,206.755661,258.0586853,215.7785034,291.590271,306.538208,295.0308533,213.357605,194.8336639,80.87631226,217.3278809,185.2016754,178.3270874,168.4239807,99.02245331
528.0499878,197.1490326,250.0287628,213.0623779,294.9004211,311.0957947,303.2009277,219.7981567,201.9539795,85.79639435,228.5301971,198.2295532,191.4305115,175.8442078,106.5958939
528.9500122,191.5796661,246.7978516,211.7858276,294.1661377,312.6846924,309.8716736,225.3258209,209.0476685,91.31291199,238.6240692,205.0357056,198.9502869,183.6075134,111.9475555
530,179.9338074,237.282608,209.0412445,292.7980042,314.4760437,315.9031372,232.1583862,216.9740753,97.83220673,250.9354401,216.5483093,211.4480438,190.4961548,121.2687912
