Wavelength (nm),30 s,60 s,90 s,120 s,150 s,180 s,210 s,240 s,270 s,300 s,330 s,360 s,390 s,420 s,450 s,480 s,570 s,600 s
450,54.68334198,16.79658318,13.36913872,12.12149715,12.43278694,10.84082794,11.22791576,10.49533844,10.46609306,9.682894707,10.35781002,9.926543236,10.06027889,9.578005791,10.51505375,10.34814548,11.17468262,11.42639351
451.0599976,59.65830994,18.43512726,13.85983086,13.06395245,13.14417362,11.38064575,11.94637966,10.95361137,10.90158176,10.14597893,11.12478828,10.27590466,10.52458954,10.05009174,11.17082024,10.96352577,11.70199203,12.04529381
451.9599915,63.11313248,19.67697716,14.74954224,13.6210041,13.96544647,11.84580231,12.66254616,11.58689117,11.41072273,10.84413528,11.68620491,10.93430424,11.06254578,10.7289753,11.67643642,11.56242657,12.47749233,12.41675568
453.0299988,68.29805756,21.31019402,15.86175346,14.74816895,14.66580105,12.72660923,13.34904575,12.65217304,12.02411079,11.71724415,12.56865978,11.6022768,11.8539238,11.27996159,12.42936134,12.15942478,13.05405045,13.26008797
453.9299927,72.56188965,23.0812912,16.62681389,15.48608685,15.7598629,13.56469345,13.96324158,13.18257618,12.9913702,12.04451561,13.38060284,11.99447823,12.29096889,11.89630985,12.57106495,12.76506424,13.57421112,13.94318104
455,77.6539917,25.03707886,17.7815094,16.44799232,16.55005074,14.13637352,15.22006321,13.95888805,13.920434,13.05500889,14.12932968,12.83083534,12.9247961,12.80475807,13.63545799,13.26361847,14.90312195,14.96550655
456.0599976,82.3994751,27.68101311,18.82106018,17.17459106,17.37508202,15.07163715,15.80266285,14.72856522,14.56452084,13.80662346,14.59504604,13.66450405,13.87988663,13.16005898,14.32874775,14.11269188,15.44699192,15.63438606
456.9599915,85.50493622,29.47104073,19.81207466,17.88482475,18.0019722,15.52887917,16.68535423,15.64516544,15.07974339,14.42473602,15.38179874,14.39504051,14.43113136,14.08862209,15.13108444,15.07471561,16.17499161,16.4734993
458.0299988,89.77553558,31.66369438,20.76441002,19.28523636,19.01558304,16.27876663,17.59081268,16.36161995,15.90417862,15.03695297,16.46637917,14.91154671,15.16564465,14.63780212,15.84353447,15.62052822,16.62593651,17.17911339
458.9299927,92.78102875,33.60008621,22.13531876,19.95127678,19.91665268,16.92030334,17.84324837,17.10454369,16.58023453,15.77678299,16.82192612,15.49833107,15.9897337,15.2815485,16.60273361,16.30097961,17.39947319,17.69115448
460,96.14321136,37.16756821,23.1545372,20.75858307,20.83455276,18.1272068,19.11515427,17.70746994,17.42896652,16.14749908,18.03052139,16.57300949,16.80422974,15.95569038,16.95732117,17.21278763,18.29397774,18.76922989
461.0599976,99.39749908,40.14129257,24.61590958,21.622715,22.00722504,18.78613472,20.0181942,18.64717674,18.17205811,17.27127647,18.73822403,17.45778084,17.67782974,16.96266747,17.90677261,17.66701508,19.36218643,19.35699654
461.9599915,101.5050125,42.44522095,25.45708656,22.69157219,22.51703072,19.77114296,20.39010811,19.24016762,19.07822609,18.05289268,19.42646599,17.83628845,18.08068085,17.22817421,18.45018387,18.61514473,19.78088379,20.34477425
463.0299988,103.4336395,45.1533432,26.75835991,23.54875565,23.19489288,20.47404671,21.32382774,19.74100494,19.55480003,18.70504379,20.09247208,18.73317528,18.80287552,17.86659813,19.38030434,19.28374672,20.26183319,21.05343246
463.9299927,103.8924484,48.19565582,27.80550957,24.40386772,24.15515518,20.94976616,21.94775581,20.57775497,20.37293053,19.07070541,20.76165199,18.93711281,19.47845459,18.40579605,19.88317871,19.95172882,21.06995201,21.45421028
465,105.5059204,52.60931778,29.48291016,25.3199482,24.85501289,21.33128166,23.30450439,21.23805046,20.85927391,19.7996788,21.52838135,19.91341019,20.08581543,18.94549751,20.97217369,20.56578255,21.90571022,22.71497345
466.0599976,105.252739,55.74240112,31.11519432,26.18520546,26.11564064,22.66129684,23.54224205,22.21051025,21.7925396,20.74347687,22.26880074,20.50758362,20.64029884,20.02545547,21.54081726,21.27490044,22.61697006,23.07870483
466.9599915,106.4095993,59.41926956,32.77346039,26.9139328,26.56508827,22.88922691,24.36011696,22.76697159,22.33133507,21.25425148,23.00949287,20.98936081,21.35870552,20.53765869,22.39256859,21.63866043,23.34619904,23.71126175
468.0299988,105.2008286,63.27937698,34.65119171,27.90673065,27.61375046,24.20692635,25.18249702,23.58625793,22.97205353,21.85540771,23.8337574,21.76352501,22.00829697,21.43950272,22.69167328,22.52295685,24.15484619,24.33699417
468.9299927,104.7789001,66.1803894,35.8791275,28.85628319,28.48477936,24.21068954,25.9395256,23.98163986,23.94902039,22.59089661,24.51972961,22.23674583,22.63486671,21.86022758,23.19015312,23.1397419,24.92732048,24.84940147
470,103.5309372,72.12673187,38.23778152,30.13251495,29.65936661,25.65754128,27.03954887,25.39805603,24.52245331,23.10400963,24.90992355,23.34941864,23.25144386,22.70385551,23.87991714,24.14876747,25.5788765,25.85852051
471.0599976,102.5295792,77.36724091,40.69905853,31.22274399,30.58041954,26.09754372,27.71453094,26.02306366,25.70436287,24.162323,26.308815,24.04106903,24.40846062,23.13440895,25.1154213,24.95933533,26.52106094,26.48147964
471.9599915,101.1851349,81.35569763,43.31356812,32.93175507,31.692873,26.96585083,28.64580536,26.52877426,26.33889389,25.0317173,26.7092762,24.47181511,24.8574791,24.09880257,25.53032684,25.52801514,26.9670639,27.38326454
473.0299988,100.1856461,86.75292969,45.62273026,34.13306046,32.72465515,28.01773834,29.61379433,27.54452324,27.33705521,25.4407177,27.72289085,25.20976639,25.17887306,24.36701012,26.35407066,25.91341972,27.64724922,27.92403603
473.9299927,99.28754425,91.19607544,48.07380295,35.53058243,33.95264053,28.67381668,30.4375248,28.37193108,27.76574898,26.07972336,28.5137043,26.06774521,25.88205719,24.72250175,26.68978691,26.60100746,28.3636322,28.53518867
475,97.4180603,97.85590363,52.35154724,37.22903442,35.07725143,29.35891914,31.11355972,28.76661491,28.20991898,26.77389526,28.93861389,26.82467651,26.81607246,25.57235527,27.54751778,26.9564991,28.92620277,29.30300331
476.0599976,95.99429321,103.0574799,55.41285324,39.52849579,36.3340416,30.34114265,32.0221405,30.10887718,29.31194496,27.43603516,29.78353691,27.07553864,27.60083771,26.21335602,28.08560944,27.77100945,29.62821579,30.07281303
476.9599915,95.23370361,109.4576721,59.42264175,41.0307579,37.87583923,31.41420746,32.85858154,30.86285782,30.10550117,28.06068611,30.54921913,27.74521065,27.93341637,26.65982246,28.84885025,28.60297203,29.98811913,30.84238815
478.0299988,92.85354614,114.9946289,63.9395256,43.62812805,39.27074051,32.22124863,34.4847641,31.79061508,31.14050484,29.10035896,31.08974266,28.329422,28.72235489,27.37032318,29.71560478,29.14453125,30.77545738,30.99045944
478.9299927,91.71566772,120.1418228,67.59711456,45.11156845,40.28671646,33.76398468,35.14038467,32.53526688,31.95271301,29.5578022,31.50642014,28.96224594,29.1364975,27.71253395,30.0912323,29.99163628,31.52273178,31.43068123
480,89.09438324,126.5598526,73.83141327,48.35411072,42.49703979,34.79337692,36.36767197,33.01379776,32.81698227,30.55811501,32.79970932,29.83728027,30.12543106,28.41089439,30.63508224,30.22501373,32.18435669,32.68956375
481.0400085,87.63642883,131.902832,78.94862366,51.75995636,44.69577408,36.14581299,37.70664978,33.9925766,33.90716171,31.33041,33.47432327,30.62337112,30.53981018,28.99307251,30.90329552,30.57709885,32.57903671,33.16748428
481.9400024,86.36881256,138.9156647,84.08817291,54.63903427,47.15196991,37.68669891,38.96472168,35.04615784,34.35316849,31.92019463,33.96113205,31.02661133,31.34512901,29.73101044,31.48587799,31.4649868,32.76958466,33.51524353
482.980011,84.20626831,142.8392639,90.79213715,58.47428894,49.71354294,38.90101624,40.48235321,36.31304169,35.63262177,32.81478119,35.29109573,31.8166008,31.79892921,30.28134346,32.47589111,32.19239426,33.57364655,34.03388214
484.019989,82.69171143,149.4391327,97.3715744,62.16560364,51.89146805,40.95343781,41.98841095,37.5266571,36.83179474,33.82593155,35.86975098,32.50893021,32.52439117,30.75925636,32.41601563,32.29609299,34.35521317,34.68060684
485.0700073,80.39966583,154.3594513,103.79216,66.32821655,54.87870789,42.53762817,43.53569794,39.12310028,37.55174255,35.19150162,37.18159103,32.92427826,33.90189362,31.82408524,33.38800812,33.43216705,34.85489273,35.20038223
485.9700012,79.22976685,156.8527374,110.322113,70.33742523,57.88477325,44.75904465,44.59949493,39.73661804,38.32451248,35.71120834,37.81359863,34.06085968,34.13319397,32.13328934,33.91410446,33.63115311,35.13746262,35.73865891
487.0100098,77.3597641,160.3384552,117.7780151,74.92576599,61.02185059,46.53500748,46.876091,41.31743622,40.49658966,36.31779861,39.22134399,34.71868515,34.95986176,32.3804512,34.97102737,34.06299591,35.85676575,36.41041183
488.0499878,75.66921997,163.8735962,125.5349045,80.7532959,65.29489899,49.07803726,49.06997299,42.71203232,41.70523071,37.61597061,40.00426102,35.28443909,35.41887283,33.08436203,35.46651077,34.38755035,36.35853195,36.67522812
488.9500122,74.87417603,166.1664124,132.3939667,85.9605484,68.69719696,50.91576004,51.03066254,45.11682892,43.09344101,38.93541336,40.82322693,36.2530632,36.40909958,34.03651047,36.2742424,35.20049286,36.86800766,36.61083603
490,73.10199738,167.1974792,139.7702789,91.70553589,73.30726624,53.41928864,52.87390137,46.51062775,44.74726868,40.24112701,41.446064,37.10844803,36.98971558,34.66585922,36.48644257,35.95597076,37.10193253,37.31110764
491.0599976,71.98504639,168.225647,148.6755676,99.42591095,78.35248566,56.30088043,55.85035706,48.6235199,46.17062759,41.53689575,43.7367897,38.29331589,38.20133209,35.37796021,37.35536194,36.55457306,37.99785995,38.19719696
491.9599915,70.72142792,168.6085663,152.6391296,103.2153015,81.79450989,58.84345627,57.99267578,49.66588211,47.09609985,42.55670166,44.14120102,38.4681778,39.17691803,36.3043251,37.58772278,36.79499435,38.55781555,38.5328064
493.0299988,70.09226227,169.1000671,159.5214691,110.0256195,88.07249451,62.73096848,60.45993042,51.84053802,49.27094269,43.70202255,45.60546112,40.14861679,39.72245026,36.97916412,38.74066162,36.94333649,38.84476089,38.60212708
493.9299927,68.41830444,167.7722626,166.0040894,116.490799,93.00846863,65.62969971,63.61709595,53.55626297,50.62474442,44.90194321,46.83951569,40.86868286,40.58000946,37.71154022,39.34180832,37.98939514,39.39625168,38.96244431
495,68.28372192,166.5439301,172.588562,123.8365631,99.51187134,69.92520142,66.53562927,56.45949936,53.29914856,46.58248901,48.87999344,41.99225616,41.78201294,37.98204803,39.97187805,38.47496796,40.12914658,40.22982407
496.0599976,67.69776154,163.3087921,179.336792,131.4894714,106.007782,74.54080963,71.39363098,59.99240112,56.08628082,49.10876846,50.29008484,43.10904694,42.95375061,39.64297867,41.38805008,39.51153564,40.59561539,40.36178589
496.9599915,66.1003952,162.9256744,182.0076599,136.0698242,111.388031,78.2088089,73.97190857,61.48431396,58.3853569,50.14786911,52.1517601,44.10433578,44.19193649,40.20847702,41.22560883,39.93877792,41.42727661,40.73760605
498.0299988,65.12702942,159.1529846,187.0354919,142.3149261,117.6039429,82.93807983,79.14624023,65.41455841,61.30558395,52.55548477,53.97517776,45.77401352,45.87425232,41.56307602,42.39797974,40.67344666,41.6823616,41.47940826
498.9299927,65.82115173,155.5672302,190.3023834,148.8534088,125.7207565,87.74137878,83.93245697,68.11826324,63.68071747,55.15877151,56.13532257,47.41404724,46.58858109,41.8902626,43.69089508,41.53517914,43.22874832,42.28141022
500,63.94696045,151.2980347,193.0983887,155.87677,133.1942291,94.02449799,89.09946442,72.19326782,66.85522461,57.5629921,58.95363235,49.62286758,49.16162109,43.67828369,45.20871735,42.82967758,43.57487488,42.56301498
501.0400085,63.61547089,146.7574463,196.1425476,163.4962311,139.9751129,99.88195038,95.24192047,76.63829803,70.64232635,60.72131729,61.3340416,51.67697906,50.99261475,45.22685242,46.76139069,43.78129196,44.14833069,42.81855392
501.9400024,63.95061493,143.8261261,196.8874512,166.9987946,146.579361,104.254509,99.14342499,81.43655396,74.2579422,63.39876175,64.47319031,53.00635147,52.6209259,46.81996918,48.24170685,44.93810654,45.26245499,44.37226105
502.980011,62.91651917,140.3709412,196.6166077,172.5827332,154.6065063,110.509903,104.8826904,85.16060638,78.74601746,67.15196991,67.84408569,55.22690964,55.16101456,48.99801254,49.46310806,46.25029373,45.45848083,44.47669983
504.019989,63.3428154,134.8017273,196.1112213,176.7214661,159.8574982,117.5319748,112.1897125,90.32891846,83.76472473,70.34864807,70.69741821,57.78756332,57.27759933,51.3655777,51.60285187,47.83970642,47.31829071,45.98598099
505.0700073,62.48945999,130.0727234,194.1725464,180.8427277,166.8491364,123.2336044,119.0928497,95.41543579,89.1643219,73.89730072,74.59378815,61.2727623,60.11186981,52.99780655,53.28486633,49.32791138,47.94160461,46.45936584
505.9700012,62.40181351,125.2399979,192.958374,183.5487366,174.0812378,129.017334,123.6672211,100.7893677,92.48225403,77.65817261,78.33560944,64.38974762,63.20611572,54.90006638,55.86793137,51.08948135,48.84175873,47.3274498
507.0100098,61.0729866,120.1688309,190.0843048,185.3571625,177.5006714,134.2685394,130.8383942,105.2698135,97.23841095,82.42965698,82.54193115,66.8193512,66.24625397,58.02908707,57.86547852,53.20723724,49.78800583,48.00949478
508.0499878,61.44927979,115.9629059,186.8316345,187.1984406,183.3855133,140.2688904,137.9661713,111.6789474,104.4121933,87.08357239,87.65150452,71.17679596,70.00659943,60.97742462,60.00515366,55.02438354,50.88408279,49.40991211
508.9500122,60.88895798,112.509613,182.5033875,186.5841217,185.9672394,144.2328339,143.1745758,116.8107758,108.8547668,90.42929077,91.73628235,73.82324219,73.68516541,63.12131882,62.38307571,56.60780334,52.08165359,49.72836685
510,60.54891205,107.6951294,177.725235,187.168335,189.1021729,150.0131531,148.9058838,122.6898193,114.8045273,95.5055542,96.15893555,77.64466095,77.1753006,66.49714661,65.37908173,58.66065216,52.6749649,51.08023071
511.0400085,59.61021805,102.6228104,172.2289581,185.4066467,191.8663177,152.1993256,154.3884125,128.0905762,119.6213226,101.1420517,101.4658966,82.05117035,80.36331177,68.94038391,68.65943146,61.07433319,53.91706085,52.22534943
511.9400024,59.75463486,99.30538177,167.6792603,182.1362915,193.0863342,156.2851563,157.514679,132.4543915,124.1918564,105.27491,106.3617249,85.52344513,83.3080368,72.04925537,71.14022827,63.26088333,54.73184586,52.80035782
512.9799805,59.17626953,95.35536957,160.2653351,180.9568787,193.4587708,160.2700806,163.1467285,138.1494598,129.6365967,111.1152725,111.2239304,89.87422943,89.01712036,76.3633728,74.84667969,65.70298004,55.73535156,53.55856705
514.0200195,59.42227936,91.71110535,154.3337708,176.1455536,193.0384064,161.287735,166.9848633,142.2900085,135.7864838,116.5922546,117.7462845,94.53177643,93.24203491,80.38358307,77.76335907,69.08075714,56.98278046,54.65867233
515.0700073,58.81490707,88.06336212,148.7409821,171.6125488,191.2828064,163.3366699,170.5894775,147.3049927,139.6355896,120.5140457,124.263504,99.35777283,97.65242767,84.32232666,81.87871552,71.54434204,57.99479294,55.40952682
515.9699707,58.41200638,85.58164978,143.1484985,168.0478668,189.0814667,163.7833099,171.8838959,150.0912323,145.4259796,124.9425354,127.0524292,102.9576797,100.8920517,87.64719391,84.14897156,73.99815369,58.99493408,56.19575882
517.0100098,57.30864334,83.27654266,137.0005951,163.3314362,186.1566925,163.4886932,174.0300903,152.1933899,148.4660797,129.092804,132.5192566,107.3332672,105.4597549,90.42028046,87.58666229,76.46279907,59.7081871,57.34794235
518.0499878,57.24165344,80.79509735,131.2078094,158.4048615,183.0536041,163.1503448,175.6922455,156.5303802,151.5652924,133.0122986,137.2559662,111.0559692,110.1496124,94.75112152,91.5637207,79.25682831,60.05543518,58.69397736
518.9500122,57.96251678,78.21958923,125.5407791,152.7271118,178.9984589,160.5271912,175.4462585,157.3598938,153.5040283,134.674408,141.9245911,113.6694717,113.6468735,98.01330566,94.2337265,81.74102783,60.53614426,58.89019012
520,57.07864761,76.07344818,119.652832,147.4337616,174.2489166,159.0196075,174.8329163,158.804718,156.0020599,138.9001617,145.2407837,117.705101,117.0119858,101.9075623,97.51475525,84.41914368,61.25829697,59.26710892
521.039978,56.93452072,74.06064606,115.1144714,141.5129852,168.5675354,154.7718506,172.6208496,159.9557037,158.3559723,141.6879425,148.697403,121.3972702,120.7970657,104.6767731,100.8904343,87.13819885,61.47152328,59.86524963
521.9400024,57.02507019,72.37174225,110.9971313,136.5528717,164.8218842,153.3542786,171.902359,158.9966888,158.2710266,142.5654449,150.3746948,123.5390167,123.113945,107.2653351,102.9690247,89.1469574,61.755867,60.73415756
522.9799805,56.60541153,70.08408356,106.0111923,130.5800629,158.6729889,149.48909,167.4341888,157.4549561,159.2570953,144.4219513,152.9156799,126.1316223,126.1126404,109.2822495,105.2822876,90.16320038,62.58083725,61.12772751
524.0200195,56.31255722,68.9132843,100.6151276,125.0649109,152.5318451,145.2624512,165.8041534,156.1435699,157.284729,143.8527222,154.3908081,128.9740601,128.1417694,111.2641525,107.8671951,93.11616516,62.00561905,60.65709305
525.0700073,56.0449791,67.46289063,96.01564026,119.1960907,146.0815125,140.1009216,160.0714874,152.8513947,156.4328461,144.0629883,155.8169861,130.0026245,129.0741272,113.4107513,110.0743942,94.28159332,62.37705231,60.90809631
525.9699707,55.97132874,65.48410034,93.1000061,114.712471,141.078598,135.7807922,156.6016846,150.3855438,153.7252502,143.095047,155.264389,130.0141449,129.970932,114.6201324,110.0868378,95.55540466,61.12591171,60.74388885
527.0100098,55.56339645,64.6816864,88.6316452,109.3590622,134.3798065,130.4790039,150.9526215,146.6348114,150.2333221,141.3818817,153.686142,129.7423096,130.1627655,114.7370377,111.1716156,95.38885498,60.76054001,59.68830109
528.0499878,55.10864639,63.4767189,85.66664886,103.6117554,127.2507629,125.6047058,146.2056427,143.2787018,147.1589966,139.5001984,151.9879456,130.4019318,129.377594,114.5643463,110.9645538,96.28445435,60.34082031,60.15193558
528.9500122,54.79208374,62.54471207,82.91187286,99.51322174,122.1966553,121.1162491,140.927887,138.1913452,144.3489532,136.6253815,150.2825165,128.8827057,129.117218,113.4905701,111.5711517,96.84992218,59.76000595,59.25516129
530,54.31441879,61.26188278,79.55235291,95.41622925,116.788559,115.4473953,135.4785461,134.5575256,138.9551697,133.440979,147.6696777,127.1577911,127.0620499,113.3415375,110.8234634,95.27056885,58.80686188,58.32203674
531.0200195,53.56948853,60.09262466,77.06330872,90.84867096,110.5916214,109.9904175,130.0155029,129.0094604,134.397583,129.9220123,143.1657867,124.4899445,124.4750671,110.785553,109.2988205,94.16978455,58.02999115,57.95532227
532.0499878,53.65909195,59.56829834,73.98830414,85.96791077,104.9498749,104.9591827,122.5944366,123.8183899,128.6292877,125.582901,140.068222,121.509079,121.9488678,109.9872589,106.8275604,93.29051208,56.74252319,57.17430115
532.9400024,53.73243332,58.66060257,71.63368225,83.16135406,99.70553589,100.7220764,118.0173264,119.1529007,123.9527435,121.8199997,136.0989685,118.4492645,119.0798569,108.0636139,105.0445175,91.67269135,55.6984787,55.75354004
533.9699707,53.17315674,57.25434875,69.67090607,79.21786499,96.00214386,95.70283508,113.2382202,113.9829941,119.7317352,116.7505417,130.9466553,114.5374451,115.3876724,103.9187393,103.2029648,90.0782547,54.13807297,55.03199387
535,52.5686264,57.09897614,67.47168732,76.47667694,91.3585434,90.97398376,107.1321945,108.4932175,113.8910065,111.3890533,125.6957092,112.6034164,112.7404633,101.6947327,100.4447784,87.17673492,53.24846268,53.45132446
536.0200195,52.47829437,55.86762238,66.20520782,72.85948944,87.41755676,87.18112183,103.1731567,102.4484634,110.0242081,107.8946686,120.2089005,106.9352264,108.0077057,98.79271698,96.92559052,86.4761734,51.86185074,53.19412231
537.0499878,51.01761246,55.54541016,63.43668747,70.2909317,83.50653839,83.06723022,97.62800598,97.66795349,103.62323,102.7113724,114.8146515,102.7539749,103.2134705,94.62129974,93.68151093,83.60342407,50.76261139,51.69288254
