Wavelength (nm),30 s,60 s,90 s ,120 s,150 s,180 s,210 s,240 s,270 s,300 s,330 s,360 s,390 s,420 s,450 s,480 s,570 s,600 s
650.0106201,0.01215076,-0.004815382,0.001239557,0.009650591,-0.001973405,0.004104973,-0.004939118,0.005719178,-0.000541404,0.004139259,-0.0047291,0.001456506,0.003702965,0.013712644,-0.001034103,0.000554754,0.002927478,-0.003531103
648.9846191,0.012172003,-0.004896836,0.001299814,0.009852216,-0.001882999,0.004161343,-0.004763973,0.005476076,-0.000450958,0.004070376,-0.004517597,0.001316093,0.003731449,0.013870806,-0.000890082,0.000496855,0.003222303,-0.003565971
647.994873,0.012414595,-0.004730534,0.00137566,0.009775986,-0.00177061,0.004089059,-0.004606124,0.005792101,-0.000270631,0.004390557,-0.004448167,0.001609514,0.003996723,0.014123896,-0.000775937,0.000689943,0.003343481,-0.003198981
647.0049438,0.012291924,-0.004649715,0.001355431,0.009807811,-0.001524903,0.004243468,-0.004675427,0.0058579,-0.000107672,0.004275072,-0.004263186,0.00164628,0.004085062,0.014327555,-0.000634312,0.000747401,0.003520902,-0.003377172
646.0147095,0.01247589,-0.004589168,0.00140768,0.00987769,-0.001459636,0.004109913,-0.004756446,0.00591951,-4.43E-05,0.00442165,-0.004323882,0.001622011,0.004090549,0.014255967,-0.000771183,0.000704748,0.00361828,-0.00313191
644.9874878,0.01275941,-0.004627024,0.001294699,0.009860239,-0.001404112,0.004191321,-0.004474762,0.00583203,1.45E-05,0.004534322,-0.004268621,0.001509546,0.00401927,0.01453602,-0.000715623,0.000679857,0.003788633,-0.003160333
643.9967041,0.012622943,-0.004647308,0.001302436,0.009858014,-0.001480274,0.004253454,-0.004302147,0.005956328,-4.10E-05,0.004520406,-0.004413832,0.001559371,0.004243625,0.01455449,-0.000511309,0.000707989,0.004127474,-0.00294647
643.0056763,0.012660281,-0.004861,0.001332477,0.009747844,-0.001699759,0.004184134,-0.004619136,0.005862229,-0.000301674,0.004446729,-0.004271235,0.001629338,0.004180318,0.014595581,-0.000556451,0.000875725,0.004241089,-0.003233824
642.0142822,0.012942454,-0.004472917,0.001653789,0.009925677,-0.001377793,0.004658118,-0.004132797,0.006091424,0.000192427,0.004708855,-0.004210328,0.001927729,0.0045276,0.014817701,-0.000151562,0.00119727,0.004627061,-0.002836877
640.9859009,0.012740243,-0.004530252,0.001415341,0.009512954,-0.001409479,0.004552763,-0.004282719,0.005897547,9.85E-05,0.004782211,-0.004270928,0.00172741,0.004411608,0.01484687,-0.00027208,0.001133575,0.004532413,-0.002893554
639.9938965,0.013038659,-0.004585838,0.001678684,0.009798385,-0.001207041,0.004748737,-0.004100591,0.006006325,0.000293439,0.005014764,-0.004030375,0.001879318,0.004729345,0.015313308,2.18E-05,0.001214272,0.004815686,-0.002416605
639.001709,0.01317547,-0.004614935,0.00181087,0.009780858,-0.001349305,0.005156063,-0.003932342,0.006127023,0.000436864,0.005075652,-0.00396179,0.001991306,0.004656574,0.015298855,0.000159642,0.001307837,0.004854924,-0.002487133
638.0092163,0.013188065,-0.004465589,0.001860339,0.009583263,-0.001296297,0.005308729,-0.003829052,0.006071473,0.000682139,0.005024427,-0.003967228,0.002137661,0.004912648,0.015523132,0.000230783,0.001408823,0.005043177,-0.002491097
637.0164795,0.01339246,-0.004516931,0.001694561,0.009573048,-0.001108006,0.005666356,-0.003923928,0.006173232,0.000655954,0.005053233,-0.004069254,0.002198953,0.005088014,0.015695859,0.000489391,0.001428924,0.004998581,-0.0023749
635.9866333,0.013587202,-0.004225043,0.002014425,0.009927001,-0.001100931,0.005899436,-0.003598011,0.006401671,0.000872404,0.005237826,-0.003731692,0.0024143,0.005262298,0.015805641,0.00055338,0.001687259,0.005208666,-0.002133604
634.9932251,0.013585947,-0.004179563,0.002151526,0.009819858,-0.000841927,0.006169897,-0.003463929,0.006450037,0.000991554,0.005397676,-0.003601554,0.002490133,0.005372908,0.016135858,0.000675579,0.001730971,0.005370261,-0.001861555
633.9996338,0.013739522,-0.004342386,0.002098122,0.009752451,-0.000895611,0.006134164,-0.003382669,0.006315276,0.001026737,0.00532364,-0.003790357,0.002345222,0.005434738,0.015867578,0.000760237,0.001704956,0.005407321,-0.001999894
633.0056763,0.01384948,-0.004147873,0.00234746,0.009939025,-0.00089933,0.006459049,-0.003202476,0.006475182,0.001158258,0.005664625,-0.003648069,0.002394101,0.005421999,0.016210552,0.000929498,0.001932279,0.005714929,-0.001757049
632.0114746,0.013949282,-0.004121566,0.002529864,0.009810644,-0.000670602,0.006827985,-0.003185825,0.006695158,0.001418951,0.005673358,-0.003396128,0.002641109,0.005641731,0.016374547,0.00118019,0.002172286,0.005892403,-0.001694189
631.0170898,0.014098947,-0.004054431,0.002548299,0.009856293,-0.000586749,0.006934525,-0.003010949,0.006632281,0.001378205,0.005665045,-0.003413439,0.002662388,0.005623767,0.016578188,0.001233742,0.002024672,0.006075595,-0.001683772
629.9854736,0.01415235,-0.004117514,0.002622905,0.009849779,-0.000526874,0.006973927,-0.003073053,0.006764696,0.001634119,0.00581301,-0.003329343,0.002751732,0.005814374,0.016695593,0.001487207,0.002188026,0.006372985,-0.001603726
628.9904785,0.014141145,-0.004056124,0.002570614,0.009838738,-0.000600812,0.007160733,-0.003037221,0.006585997,0.001538095,0.005875742,-0.003399158,0.002676635,0.005915731,0.016999351,0.001402901,0.0022665,0.00634367,-0.001623893
627.9951782,0.014307383,-0.003911768,0.002684032,0.009959764,-0.000364166,0.007428374,-0.002742432,0.006807212,0.001844299,0.005971156,-0.003296358,0.002975407,0.006211069,0.017252844,0.001660883,0.002480839,0.006636539,-0.001374129
626.9995117,0.014580054,-0.003836852,0.002860845,0.010211829,-0.00023286,0.00732353,-0.002658207,0.007019964,0.001914469,0.006150993,-0.003051615,0.003139875,0.0061731,0.017227175,0.001775961,0.002793441,0.007144786,-0.00121623
626.0037231,0.014741024,-0.003953479,0.003039894,0.010528085,-0.000252211,0.007559872,-0.002538092,0.006989711,0.002036427,0.00622777,-0.003090633,0.003081552,0.006234072,0.017296804,0.001891381,0.002760537,0.007334956,-0.001217676
625.0075684,0.014615498,-0.003829104,0.002953253,0.010042701,-0.00011083,0.007423318,-0.002648378,0.006816152,0.001920449,0.006071867,-0.00317719,0.003066014,0.00643409,0.017274689,0.00196564,0.002897691,0.007303207,-0.001195837
624.0111694,0.015024633,-0.003487451,0.003188584,0.010355785,4.82E-05,0.007543752,-0.002274484,0.007077766,0.002498933,0.006666583,-0.002727152,0.003526957,0.006806134,0.017763104,0.002457773,0.003185742,0.008080488,-0.00073914
623.0144043,0.015129423,-0.00352643,0.003328664,0.010389136,0.00021659,0.007593378,-0.002455422,0.007199025,0.002475945,0.006582107,-0.002924204,0.003411519,0.006805214,0.018015234,0.002491825,0.003172808,0.008227248,-0.000755368
622.0175171,0.01522035,-0.00345191,0.003362994,0.01038158,0.000101588,0.007531846,-0.002458717,0.007354017,0.002686532,0.006667871,-0.002884605,0.003479332,0.007028566,0.018164689,0.002475372,0.003377942,0.008491059,-0.00083893
620.9833374,0.015020882,-0.003537266,0.003209081,0.010432567,8.96E-05,0.007117366,-0.002646989,0.007198315,0.002505624,0.006569308,-0.002721236,0.003449821,0.00696551,0.018122017,0.002795681,0.003363829,0.008406808,-0.000608773
619.9858398,0.015526593,-0.003145016,0.003674013,0.010729772,0.00051554,0.007015465,-0.002199955,0.00742582,0.002913953,0.007034986,-0.002437456,0.003664562,0.007309946,0.018749073,0.003207803,0.003796989,0.008956661,-0.000328627
618.9880981,0.015712982,-0.003171383,0.003489222,0.010818164,0.000293335,0.006683565,-0.002329793,0.0075083,0.003057777,0.007181497,-0.00244317,0.003653181,0.007443041,0.018781291,0.003417076,0.003852143,0.009093408,-0.000213455
617.9900513,0.016014872,-0.003103484,0.00378529,0.010932403,0.000592753,0.006588126,-0.001968406,0.00775581,0.003142848,0.007222212,-0.002142465,0.003963832,0.007611687,0.019107504,0.003589934,0.004233195,0.009428822,0.000113784
616.9916992,0.016005902,-0.003092278,0.00378623,0.010673525,0.00067545,0.006313044,-0.002065389,0.007769804,0.003270629,0.007350384,-0.002118458,0.003942542,0.007802246,0.019192638,0.00379174,0.004286235,0.009662766,0.0001548
615.993103,0.01601514,-0.003185465,0.00370072,0.010743861,0.000872716,0.006238799,-0.002154314,0.007760054,0.003133644,0.007370024,-0.002064668,0.004020498,0.007972402,0.019407379,0.003862747,0.004451593,0.009705118,0.000224412
614.9942017,0.01624793,-0.003090685,0.003929403,0.01090546,0.000946308,0.006011127,-0.001825468,0.007712252,0.003438236,0.007553761,-0.001984021,0.004331098,0.008204401,0.019699551,0.004157972,0.004892385,0.010150667,0.00042225
613.9950562,0.016376965,-0.002959994,0.003909761,0.010889798,0.000932403,0.005810491,-0.001627659,0.007942083,0.003507932,0.007774969,-0.00190001,0.004346315,0.00844162,0.020005744,0.004284458,0.004925869,0.010459029,0.000522486
612.9956055,0.016325196,-0.002899931,0.00401603,0.010869361,0.00085692,0.005871386,-0.00174818,0.008015196,0.00379127,0.007753939,-0.001940832,0.004454679,0.008438584,0.020190295,0.004414615,0.005092047,0.010853967,0.000573857
611.9960327,0.01666915,-0.002827772,0.004039257,0.011032518,0.001189171,0.006049161,-0.001457726,0.008082518,0.003883511,0.008100136,-0.001797679,0.004755934,0.008795233,0.020609902,0.004737798,0.00539474,0.011289086,0.000723209
610.9960938,0.016787924,-0.002782146,0.004024887,0.011160092,0.001198308,0.005953415,-0.001351421,0.008028934,0.003961377,0.007967367,-0.001645917,0.004697629,0.008989641,0.020943576,0.004945977,0.005630559,0.011730493,0.000842966
609.9958496,0.016856272,-0.002813885,0.004198038,0.01118745,0.001322533,0.006138548,-0.001204149,0.008250569,0.004165838,0.00810839,-0.001522736,0.004808174,0.009178374,0.020852285,0.005158499,0.005658934,0.012215692,0.000815578
608.9953613,0.017146921,-0.002751332,0.004642602,0.011697277,0.001551318,0.006307003,-0.001106818,0.008406042,0.0042379,0.008338563,-0.001306465,0.005023065,0.009361423,0.02096759,0.005503314,0.005907465,0.012942933,0.001167602
607.9946289,0.017369084,-0.002734612,0.004480075,0.011481053,0.001569036,0.006422819,-0.001041437,0.008445737,0.004398559,0.008454052,-0.001249322,0.005176758,0.009584691,0.021339659,0.005809022,0.006113896,0.013284645,0.001306149
606.9935303,0.017455954,-0.002472719,0.004510022,0.011476934,0.00163916,0.006316327,-0.000874531,0.008386987,0.004585332,0.008654197,-0.001132431,0.005141394,0.00980225,0.021819059,0.006062259,0.006260754,0.013650907,0.001542095
605.9923096,0.017681537,-0.002364242,0.004502175,0.011377646,0.001759274,0.006504138,-0.000797694,0.008622905,0.004915371,0.008931822,-0.001074284,0.005320862,0.010065458,0.022325886,0.006336447,0.006493023,0.014160026,0.001732322
604.9907837,0.017947191,-0.002352862,0.004911705,0.011842152,0.001948322,0.006795406,-0.000607222,0.008876177,0.005069497,0.009104827,-0.000820224,0.005614956,0.010401173,0.022296265,0.006553619,0.006812734,0.01476459,0.002083217
603.9889526,0.018233711,-0.002287926,0.005109439,0.011947853,0.002160085,0.007038958,-0.000454216,0.009086192,0.005338682,0.009455542,-0.000603345,0.005958427,0.010598079,0.022608794,0.006861093,0.007164128,0.015369462,0.00238395
602.9868774,0.018391531,-0.002222413,0.00523387,0.012152863,0.002206472,0.006994446,-0.000401616,0.009256085,0.005403809,0.00948356,-0.000584061,0.00612739,0.01076363,0.022922887,0.007397381,0.007337878,0.015839817,0.002533145
601.9845581,0.018558405,-0.002171417,0.005404045,0.012079556,0.002449677,0.007036301,-0.000220596,0.009369093,0.005593139,0.009694106,-0.000326196,0.006258836,0.011091733,0.023346126,0.00793101,0.00762665,0.016353151,0.002855243
600.9819946,0.018761424,-0.002113048,0.005420505,0.012061112,0.002587254,0.007081265,5.17E-05,0.009360841,0.005590937,0.009812259,-0.000154564,0.006524686,0.011235237,0.023821021,0.008052297,0.007730487,0.016724808,0.003024227
600.0161743,0.019006401,-0.001907123,0.005657754,0.012136038,0.002754024,0.00737092,-3.42E-06,0.009671792,0.006096359,0.010182705,0.00013644,0.006708696,0.011732514,0.0243582,0.008578045,0.008282862,0.017176516,0.003456135
599.0130615,0.019176433,-0.001787883,0.005692294,0.011948199,0.002926931,0.007344328,0.000249276,0.009722351,0.006146582,0.010242201,0.000170596,0.006910537,0.011998757,0.024902979,0.008867379,0.008564739,0.017539931,0.003733303
598.0097046,0.019256441,-0.001811754,0.005827518,0.012207225,0.002974495,0.007390404,0.00027194,0.009739478,0.006366654,0.010411646,0.000228348,0.006847314,0.012261434,0.025283374,0.008995588,0.008714884,0.017905215,0.003938023
597.0060425,0.019430334,-0.00166732,0.006106703,0.012820087,0.003086323,0.007593642,0.000477315,0.00997796,0.006788385,0.010641425,0.000485918,0.00721279,0.012592778,0.025208721,0.009331536,0.00905894,0.018578343,0.00424569
596.0021362,0.019639503,-0.001767001,0.006209493,0.012570261,0.003200762,0.007670384,0.000621812,0.00992528,0.00681326,0.010868909,0.000566547,0.007274277,0.012649567,0.025430107,0.009695482,0.009321935,0.019099578,0.004439877
594.9979248,0.019862646,-0.001662524,0.006210176,0.012590885,0.003375334,0.007723319,0.000775926,0.010135563,0.006992999,0.010913953,0.000672494,0.007527869,0.012955202,0.026062891,0.010076293,0.009628253,0.019773044,0.004674733
593.9934692,0.020276593,-0.001364323,0.006587915,0.012816621,0.003617915,0.007907179,0.001104274,0.010297571,0.007336746,0.011433692,0.001078557,0.007900562,0.013548743,0.026598476,0.010752538,0.010167917,0.020589191,0.005172305
592.9887695,0.020284973,-0.00126326,0.006599033,0.012859602,0.003756881,0.008050241,0.001062312,0.01032323,0.007472588,0.011443206,0.001148888,0.008043859,0.013844242,0.027056556,0.011081297,0.010281429,0.021174241,0.005243302
591.9838867,0.020506062,-0.001221909,0.006837216,0.012904399,0.003845928,0.0081268,0.001440611,0.010593199,0.007826941,0.011791133,0.001526015,0.008382606,0.014151414,0.027695386,0.011396779,0.010845101,0.02209235,0.005758209
591.0159302,0.020753682,-0.00114911,0.006948623,0.012902453,0.003988572,0.008200471,0.001435521,0.01069,0.008026983,0.011934603,0.001587456,0.008507082,0.014552375,0.028179372,0.011751796,0.011200094,0.022816062,0.006061498
590.010376,0.020931134,-0.000983897,0.007046219,0.013102284,0.004184944,0.008300857,0.001759612,0.010856356,0.008388966,0.012320951,0.001813547,0.00881589,0.015016004,0.02857694,0.012305479,0.011581163,0.023619641,0.006476653
589.0046387,0.021360567,-0.000988237,0.007317949,0.013307973,0.004243651,0.008454368,0.001957163,0.010986081,0.008728802,0.012602423,0.002014711,0.009020008,0.015306738,0.029040961,0.012812808,0.011977149,0.024496926,0.006966378
587.9986572,0.02144601,-0.000691485,0.007508906,0.013131551,0.004419426,0.008652004,0.002134643,0.011230615,0.00904501,0.012944161,0.002226663,0.009368406,0.015889408,0.029582227,0.013319317,0.012474318,0.025357928,0.00760468
586.9924316,0.021793799,-0.000616528,0.007601229,0.013445856,0.004581068,0.008650341,0.002230331,0.011495087,0.009527878,0.013021002,0.002473627,0.009314794,0.01641003,0.03024363,0.013735942,0.01277839,0.026492313,0.007917908
585.9859009,0.021899991,-0.000526977,0.007827205,0.013526685,0.004795114,0.008909997,0.002548065,0.011527384,0.009938045,0.013537527,0.002729954,0.009934999,0.016957818,0.031126792,0.014432417,0.01349512,0.027553704,0.008611657
585.0164185,0.022009557,-0.000377719,0.007988486,0.013596711,0.004891678,0.008779885,0.002743057,0.011548916,0.009973908,0.013625558,0.002853888,0.010253677,0.01748072,0.031573582,0.014887105,0.014029776,0.028549654,0.008927568
584.0094604,0.022483429,-5.29E-05,0.008224926,0.014028734,0.005217967,0.009159153,0.003007988,0.012163431,0.0103885,0.014107985,0.003318491,0.010777402,0.01812987,0.032513045,0.015821453,0.014879337,0.029799173,0.009931451
583.0021973,0.022738807,6.70E-05,0.00848116,0.0141228,0.005553258,0.009560557,0.003468634,0.012336637,0.010970869,0.014466565,0.003605333,0.010987489,0.018739477,0.03311358,0.016388524,0.015489947,0.03107265,0.010548188
581.9946899,0.022853004,2.97E-05,0.008496311,0.014024964,0.005472931,0.009329605,0.00350227,0.01235512,0.01107572,0.014630813,0.003751893,0.011338186,0.019278467,0.033921763,0.016959889,0.015933311,0.03218383,0.01091613
580.9868774,0.02328945,0.000342891,0.008780995,0.014202871,0.005868237,0.009819276,0.003790591,0.012787854,0.011565664,0.015184481,0.004177757,0.011831272,0.019969884,0.034814827,0.017908182,0.016873414,0.033692762,0.011780893
580.0162354,0.023570746,0.0004123,0.00891034,0.014512225,0.005939113,0.009712927,0.00398912,0.012922533,0.011926646,0.015668001,0.004582978,0.012222135,0.020712139,0.035868581,0.018791292,0.01761457,0.035520576,0.012615295
579.0079346,0.023614202,0.000539306,0.009071521,0.01413847,0.006116154,0.009855128,0.004242632,0.012982059,0.012230203,0.015929578,0.004809719,0.01256328,0.021222215,0.036794201,0.019652773,0.018469855,0.036937945,0.013474586
577.9993896,0.024059184,0.000677705,0.009322543,0.014223654,0.00635373,0.010130715,0.004551115,0.013420278,0.012575829,0.016324176,0.005286613,0.01315834,0.022026468,0.037993304,0.020611504,0.019416528,0.038619015,0.014280176
576.9906006,0.024283843,0.000775459,0.009446124,0.014486209,0.006681751,0.010133629,0.004755018,0.013615514,0.012967017,0.016892817,0.00570087,0.013666213,0.022899173,0.039068628,0.021752322,0.020297939,0.040542942,0.015465429
575.9816284,0.024716141,0.000979282,0.009792216,0.015071986,0.007007731,0.010581528,0.005258393,0.013996919,0.013579858,0.017452478,0.006209624,0.014395569,0.023948606,0.040542286,0.022956971,0.021488927,0.042830195,0.0166167
575.0096436,0.025071798,0.001106454,0.00990841,0.014905187,0.007083528,0.010581316,0.005420689,0.014237723,0.013930623,0.017977111,0.006722235,0.014953679,0.024841111,0.041532818,0.024172744,0.022458376,0.044965997,0.017810702
574.0001831,0.025421325,0.001415367,0.010258474,0.015162258,0.007534559,0.011109313,0.005923368,0.014688673,0.014548413,0.018687399,0.007426952,0.015824139,0.026178544,0.043366395,0.025694832,0.024144858,0.047738437,0.019446332
572.9903564,0.025572333,0.001407238,0.010310904,0.015470928,0.007652205,0.011079147,0.006191717,0.014878881,0.014969005,0.019265234,0.007990041,0.016491223,0.027295617,0.044922419,0.027171234,0.025455715,0.05044983,0.020832838
572.0177612,0.026119409,0.001718444,0.010836025,0.015934331,0.008047208,0.011460402,0.006656542,0.015455638,0.015583258,0.020057384,0.008807543,0.017487889,0.028687265,0.046629209,0.028864229,0.027171453,0.053821642,0.022641463
571.0074463,0.026223611,0.001767228,0.010946631,0.016272439,0.008113481,0.011583928,0.007057533,0.01561814,0.016102519,0.020767801,0.009405279,0.018338252,0.029943252,0.048390158,0.030633593,0.028777536,0.056943633,0.024251707
569.9969482,0.026706867,0.001974429,0.011189257,0.016293295,0.008586653,0.011799884,0.007578442,0.016168071,0.016912168,0.021722004,0.010430471,0.019394251,0.031886708,0.051092416,0.03297526,0.030845506,0.061097626,0.026578002
568.986145,0.026946066,0.002031642,0.011333377,0.016104024,0.008683219,0.012131194,0.008025242,0.016536478,0.017607993,0.022466389,0.011158658,0.020541722,0.033471376,0.053369116,0.035177678,0.033017516,0.065148912,0.028884342
568.0125732,0.027213205,0.002183395,0.011851329,0.016293911,0.009165578,0.012398294,0.008590825,0.017122364,0.018468343,0.023921665,0.012376506,0.022015465,0.036176912,0.056961134,0.038225207,0.035745595,0.070672035,0.031913951
567.0013428,0.027529901,0.002434006,0.012029015,0.01643936,0.0095156,0.012644157,0.009160528,0.017792175,0.019475272,0.025177367,0.013445403,0.023856435,0.038700279,0.060513414,0.041356966,0.038906511,0.076493002,0.035143264
565.9898071,0.028101072,0.002695492,0.012486094,0.017014829,0.009890825,0.013138115,0.009733681,0.01854098,0.020355826,0.026551114,0.014945187,0.025413832,0.041319981,0.063910455,0.044892222,0.042121321,0.082476199,0.038528964
565.0155029,0.028326949,0.002868141,0.012731739,0.016932515,0.010306981,0.013533762,0.010423312,0.019264558,0.021277452,0.028214341,0.016289961,0.027346423,0.044414949,0.067930043,0.048575915,0.045680828,0.089183107,0.042296398
564.00354,0.028913392,0.003006867,0.013021988,0.016954318,0.01064596,0.013932121,0.01126839,0.02004814,0.022644954,0.029953986,0.018019173,0.029598633,0.04798549,0.072642788,0.053002305,0.049649559,0.096671209,0.046495967
562.991272,0.029171444,0.003192391,0.013302234,0.017280884,0.011118024,0.014230261,0.011978959,0.021036491,0.024012947,0.032175273,0.019882021,0.03239391,0.052171256,0.078617916,0.058339432,0.0545508,0.105745733,0.051802829
562.0162354,0.029492814,0.003329812,0.013683524,0.017656652,0.011654732,0.014758217,0.013009612,0.022064051,0.02572518,0.034566406,0.022112478,0.035330601,0.057036813,0.085117809,0.064207189,0.059947047,0.115886562,0.057466026
561.00354,0.029717753,0.003461536,0.013952516,0.017798781,0.012047857,0.015102727,0.013891387,0.023290323,0.02751101,0.037167195,0.024507662,0.038398892,0.062217951,0.091909491,0.070651323,0.065990463,0.126831353,0.063377529
559.9905396,0.029976258,0.00361982,0.014089214,0.018055035,0.012466886,0.015599357,0.014938409,0.024344975,0.029289896,0.040116269,0.026898228,0.041996297,0.06790816,0.099369951,0.07756795,0.072091684,0.138427913,0.069554359
559.0148315,0.030317431,0.003888003,0.014651991,0.018362826,0.013093106,0.016331404,0.016164068,0.025856294,0.031741701,0.043329611,0.029812841,0.045991432,0.074138992,0.107691273,0.085232668,0.079164669,0.150558859,0.076570153
558.0012817,0.030811936,0.00409831,0.01499931,0.018955966,0.013920413,0.017150341,0.017786808,0.02757439,0.034588635,0.04726677,0.033383898,0.050825868,0.081758589,0.118125871,0.094777912,0.087675251,0.16575858,0.085061945
556.9876709,0.031247417,0.004362343,0.015473852,0.019422917,0.014753423,0.018029697,0.019757088,0.029669413,0.037956156,0.051913552,0.03743181,0.056583434,0.090654314,0.129867047,0.105319291,0.097144336,0.182771191,0.094311565
556.0112915,0.031692773,0.004608721,0.015872519,0.019502509,0.015580012,0.019074963,0.021553095,0.032042295,0.041676342,0.057175666,0.041958775,0.062914409,0.100172475,0.142488986,0.117061749,0.107346572,0.201115534,0.10416311
554.9970703,0.031856649,0.00459407,0.016070176,0.019825822,0.016231807,0.019821189,0.023600344,0.034516796,0.045545433,0.062593289,0.046748482,0.069597565,0.110664174,0.156228498,0.129166514,0.118477888,0.220466256,0.114103727
553.982605,0.032564882,0.004999314,0.016715122,0.020418443,0.017586211,0.021298984,0.026349621,0.037618529,0.050214037,0.069609448,0.052799415,0.077379301,0.122284204,0.172205895,0.14351587,0.131072328,0.242093042,0.125696689
553.0055542,0.032989755,0.005177989,0.017176704,0.021514496,0.018581396,0.022608358,0.029065426,0.040822815,0.055270426,0.076575562,0.058829509,0.085615359,0.135096878,0.188263476,0.158521146,0.143946916,0.263951004,0.136970028
551.9906616,0.033555601,0.005478304,0.017714432,0.021692859,0.019950395,0.024055516,0.032282975,0.044503529,0.061144795,0.084801629,0.065821625,0.095241919,0.149636045,0.206912071,0.17510061,0.157977179,0.287291825,0.149524525
551.0130615,0.033937998,0.005895316,0.018364716,0.022252832,0.021696614,0.02608249,0.036118452,0.049036313,0.067959219,0.094026938,0.073897317,0.105694182,0.16644001,0.228118569,0.193781093,0.173932105,0.313587874,0.162386194
549.9976807,0.034418207,0.006236882,0.018802213,0.02288471,0.023397401,0.028120073,0.040551268,0.054049872,0.075614639,0.104752556,0.082672521,0.117541716,0.184389174,0.250636131,0.213570759,0.191129014,0.34087646,0.175964758
548.9820557,0.034879114,0.00658739,0.019550001,0.023391008,0.025637902,0.030653678,0.045555867,0.059893057,0.084654987,0.116750002,0.092958651,0.130986825,0.204151705,0.275685191,0.235471204,0.209710449,0.370126456,0.19025448
548.0038452,0.035377469,0.006833087,0.020281827,0.023945872,0.027894,0.033283107,0.051284898,0.066265762,0.094048023,0.129870638,0.103757218,0.144656017,0.225073084,0.302024663,0.257775754,0.228149787,0.398756951,0.204411864
546.9876709,0.035998125,0.00723582,0.021083606,0.025507431,0.030353434,0.036064528,0.057177968,0.072734289,0.103858836,0.142337099,0.114395924,0.158281148,0.245354295,0.325986415,0.279710382,0.245732144,0.426034778,0.21745941
546.0089722,0.036285438,0.007542962,0.021940721,0.026483756,0.033109277,0.039353959,0.063580394,0.07985834,0.114523754,0.156825855,0.125780538,0.172424659,0.266663998,0.352704108,0.301865131,0.264171869,0.453505904,0.229937196
544.9924316,0.036756027,0.007906678,0.022856634,0.027501633,0.036365114,0.043037597,0.071123756,0.088227153,0.127237961,0.173115864,0.138985336,0.188477442,0.290421665,0.381187111,0.326558083,0.283036113,0.482098103,0.243190169
544.0132446,0.037273038,0.008392635,0.024042247,0.028958272,0.040631305,0.047979012,0.081038542,0.098823532,0.14225696,0.192209393,0.154456586,0.207917586,0.318298221,0.415259719,0.354428411,0.305662125,0.514465272,0.257427603
542.9962769,0.038006105,0.009013691,0.025474738,0.030906763,0.045884449,0.053682338,0.091862597,0.110276058,0.159303397,0.212561801,0.170985043,0.227789372,0.346173942,0.449022174,0.38242057,0.32763201,0.544839919,0.271386355
542.0166016,0.038454097,0.009315481,0.026710059,0.032874592,0.050526794,0.059092145,0.102723546,0.121204749,0.174851075,0.231486395,0.185762838,0.245538101,0.371184647,0.478660882,0.40616402,0.346772045,0.569568574,0.28207472
540.9991455,0.039186325,0.009831244,0.028652754,0.035292499,0.055540774,0.064862087,0.113504477,0.13258183,0.189970866,0.249534905,0.199853584,0.261357516,0.394226611,0.504929841,0.42797187,0.363588274,0.593211711,0.291884542
539.9813843,0.039598357,0.010302262,0.03031013,0.037302207,0.061858993,0.071571432,0.126472026,0.145597905,0.207767904,0.27078706,0.215324849,0.279237032,0.419443995,0.534122169,0.451881081,0.381400019,0.617863178,0.30206722
539.0010986,0.040286083,0.011055062,0.032426123,0.039698072,0.069601484,0.080089375,0.142312989,0.160740495,0.228138536,0.294148356,0.233392477,0.300074726,0.447993934,0.565899849,0.477157503,0.399923444,0.64244163,0.312513351
537.9829102,0.041119717,0.011821589,0.035180289,0.043455049,0.079693452,0.090384625,0.161368519,0.178969055,0.25178349,0.320968449,0.253118545,0.320594281,0.477953613,0.599559069,0.503764689,0.419804663,0.667820871,0.32293731
537.0021973,0.041620929,0.012416886,0.037754018,0.046861302,0.088030525,0.09888038,0.176925272,0.193093449,0.270702839,0.340868682,0.267888993,0.336436659,0.499520659,0.622822106,0.522597671,0.43375054,0.684833229,0.330085665
535.9835205,0.042350017,0.013207838,0.040854778,0.050733775,0.097504757,0.108481258,0.193449497,0.208239093,0.290204823,0.36038211,0.282439143,0.351958036,0.520090461,0.64537245,0.540641546,0.447038055,0.701348841,0.336533904
535.0023193,0.043083303,0.014145771,0.044286855,0.054617401,0.108825408,0.119616538,0.211358249,0.224856943,0.310238212,0.38161844,0.29745549,0.366787285,0.541397512,0.667598248,0.558222711,0.459127814,0.716149867,0.342586935
533.9832153,0.043541174,0.014903232,0.048139375,0.059598334,0.121274702,0.131363183,0.231891051,0.241648033,0.330900639,0.40304035,0.311990798,0.382316649,0.561189354,0.689774513,0.574406624,0.470745504,0.730215788,0.347958714
533.0015259,0.044527762,0.015894322,0.05257152,0.064810753,0.133175477,0.142225847,0.250093371,0.2562778,0.348075092,0.420202434,0.323330253,0.393807232,0.576878607,0.705456793,0.587330997,0.479969531,0.741197586,0.351933807
531.9819946,0.045580104,0.017330935,0.058199231,0.07120768,0.148340806,0.155774087,0.271605849,0.273785085,0.368120283,0.439795166,0.336357355,0.406946003,0.59367317,0.72378552,0.600704372,0.489286751,0.75213027,0.355952501
530.999939,0.04643875,0.018763019,0.063740864,0.077363677,0.163397089,0.168580994,0.290749043,0.288950115,0.385096282,0.456123769,0.346971005,0.417147577,0.607219219,0.737944305,0.611488164,0.496303499,0.760187149,0.358789086
530.0176392,0.04718123,0.020088371,0.069675967,0.0837925,0.178283885,0.1809683,0.309549213,0.303208947,0.400825054,0.47008276,0.356612295,0.425937891,0.61896044,0.750020802,0.620200932,0.502043128,0.7663607,0.360838145
528.9973755,0.048100162,0.021517325,0.076310866,0.091408476,0.193748087,0.193830594,0.328071356,0.316482782,0.414478749,0.482647985,0.364618808,0.433463693,0.628313541,0.759244204,0.6271438,0.507079125,0.771282017,0.362118542
528.0146484,0.049497806,0.023375573,0.083852246,0.099063449,0.208549783,0.205702782,0.344122231,0.327775925,0.426690608,0.493339181,0.371243447,0.439700306,0.63621521,0.766340613,0.63277489,0.51085633,0.775705099,0.363347441
526.9938965,0.050849497,0.025809398,0.09315297,0.107851058,0.227542803,0.219095826,0.362641126,0.340526432,0.439846784,0.504472315,0.378547907,0.446126789,0.644512594,0.775045991,0.63870281,0.514554679,0.779335678,0.364415139
526.0108032,0.052214429,0.028153326,0.102418803,0.116740346,0.243909344,0.231115311,0.378707886,0.35140115,0.450514346,0.513106942,0.383761793,0.450774103,0.650245488,0.78048265,0.642589748,0.517053604,0.781656027,0.364733964
524.989563,0.053927992,0.03079693,0.112352848,0.125889897,0.259838373,0.242382839,0.392632395,0.360274702,0.459374338,0.520535529,0.388106018,0.454556346,0.654850483,0.784773946,0.645646572,0.518646717,0.783159018,0.365065813
524.0059814,0.055382334,0.033614527,0.123487167,0.13525711,0.276558429,0.253226548,0.40613544,0.368236154,0.466841728,0.526603401,0.391442239,0.457282841,0.658344448,0.78756851,0.647394478,0.519422948,0.78335005,0.364591777
522.984375,0.057244234,0.037096478,0.135729715,0.144863129,0.293064922,0.263368815,0.418433905,0.375583559,0.473865598,0.531522036,0.394479096,0.459646016,0.660777211,0.789826691,0.648623943,0.519987643,0.783459961,0.364398837
522.0003662,0.059333697,0.040689409,0.147698551,0.154423893,0.307492286,0.272449642,0.42859,0.381686211,0.479058623,0.535557985,0.396687836,0.461174578,0.662607908,0.791211128,0.649282098,0.519876957,0.783506453,0.364149392
521.0161133,0.061589245,0.044735491,0.160501689,0.163328826,0.321701527,0.280648083,0.437288106,0.386660785,0.483475983,0.538331389,0.398033708,0.462081879,0.663401604,0.791575611,0.649406493,0.519431055,0.782900751,0.363288671
519.9938354,0.064060912,0.049288485,0.174813092,0.172497556,0.335435867,0.288004279,0.445276588,0.390877396,0.48704952,0.540444672,0.399006963,0.462366611,0.663520098,0.791667104,0.648592949,0.518713296,0.78185916,0.362307698
519.0091553,0.066701867,0.053638782,0.18858701,0.181755111,0.347024024,0.294274449,0.451604307,0.39408049,0.489272744,0.541771889,0.399305314,0.462261021,0.66280973,0.790333033,0.647444725,0.517441452,0.780206859,0.361115724
517.9863281,0.069709457,0.058341354,0.201558545,0.189758763,0.357587785,0.29947114,0.456554085,0.396451205,0.491040349,0.542409062,0.399308652,0.461904734,0.662248254,0.788742125,0.646193147,0.516461194,0.77845341,0.360183299
517.0012207,0.072995886,0.063602209,0.215569332,0.197414532,0.367181808,0.303829372,0.460864335,0.398358136,0.492165268,0.542538703,0.398968577,0.461106062,0.661006451,0.786983192,0.644766271,0.514962614,0.776570201,0.359126389
516.0159302,0.076747887,0.069480658,0.230048537,0.204891577,0.375693291,0.307747245,0.46433413,0.399742365,0.492819816,0.542364657,0.39844805,0.460377067,0.659403682,0.785254061,0.643062294,0.513444483,0.774242401,0.357868254
514.9924927,0.081250139,0.076394998,0.246112868,0.212554708,0.384250134,0.311355323,0.467041701,0.400503904,0.492857516,0.541512907,0.397381157,0.459005147,0.657124341,0.782455802,0.640425563,0.511288106,0.77166754,0.356347352
514.0068359,0.086190857,0.083172485,0.260615706,0.219004691,0.390773714,0.313776374,0.468726337,0.4004834,0.492202103,0.539701998,0.396009833,0.457150281,0.654440105,0.779346228,0.637654841,0.509016335,0.768653154,0.354735315
512.9829712,0.091236271,0.090045929,0.274339914,0.224145189,0.39593032,0.315531045,0.469594121,0.400349051,0.491413295,0.538195193,0.394782931,0.455366939,0.651817441,0.776495159,0.635219395,0.506939769,0.765984595,0.353617311
511.9967651,0.096250057,0.09648665,0.286439657,0.228999689,0.399662435,0.316743225,0.469745457,0.399780989,0.490168631,0.536320031,0.393020213,0.453497112,0.649150848,0.773251653,0.632778049,0.50500387,0.763367534,0.352511615
511.010437,0.1016782,0.10321369,0.297161371,0.232766986,0.40280512,0.317509592,0.469820947,0.399282992,0.488678902,0.534708679,0.391554773,0.45174247,0.646641254,0.770651877,0.630602539,0.502920508,0.760736406,0.3517012
509.9858704,0.108345136,0.110786565,0.308838993,0.236435697,0.405444413,0.318000734,0.46913895,0.397938073,0.486947298,0.53204757,0.389701694,0.449577987,0.643386722,0.766717732,0.627513409,0.500822425,0.757506728,0.35063085
508.9990845,0.115697004,0.118412197,0.319733203,0.239855722,0.407416314,0.31802392,0.468065769,0.396618486,0.484975457,0.52969867,0.387909055,0.447367281,0.640352905,0.763391078,0.624891818,0.498602241,0.754564583,0.349871844
508.012085,0.122503564,0.125163823,0.32834065,0.241601884,0.408380002,0.317726344,0.466946483,0.395018011,0.482805491,0.527219415,0.385806859,0.445236743,0.63724339,0.760602951,0.622167885,0.496683389,0.752163053,0.348881006
506.986908,0.129686222,0.131778583,0.336132586,0.243516758,0.408959925,0.317319483,0.465258002,0.393441081,0.480899155,0.524748147,0.383961469,0.443221629,0.634438396,0.757266879,0.619529128,0.494847417,0.750216663,0.348070741
505.9995117,0.136641309,0.137734667,0.342456192,0.244457841,0.409077019,0.316619575,0.463700771,0.391872227,0.478331447,0.522376895,0.382100493,0.441180915,0.631971955,0.75457561,0.617319286,0.49300167,0.748367488,0.347078472
505.0119019,0.145009682,0.144055829,0.348468989,0.245637983,0.408602178,0.315713346,0.461798936,0.390122622,0.47599262,0.519580364,0.379935771,0.439235449,0.629249871,0.751692593,0.615163446,0.4913477,0.746796846,0.346343845
503.9860229,0.15387854,0.150448054,0.354091495,0.246373043,0.408038497,0.314666301,0.459758312,0.387945414,0.473347694,0.516930938,0.378126264,0.436988622,0.626381397,0.748431504,0.612749815,0.489782602,0.745095909,0.345451504
502.9980164,0.162332654,0.156004921,0.358001322,0.246811003,0.407137483,0.31336239,0.457405567,0.386281043,0.471206844,0.514394403,0.37615943,0.435106784,0.623683691,0.746020019,0.610717595,0.488159895,0.743652523,0.345086247
502.0097046,0.170246273,0.160789028,0.360943615,0.246590614,0.405903429,0.312066138,0.455467343,0.384173304,0.469013125,0.512118101,0.374497742,0.433308542,0.62151587,0.743724287,0.608909607,0.486729085,0.74256599,0.344494134
500.9832153,0.178625032,0.165114492,0.363443673,0.246469513,0.404681176,0.310743153,0.45313403,0.382352144,0.466884255,0.509792745,0.372795582,0.43177557,0.619233429,0.741769016,0.607128918,0.485617697,0.741584241,0.344150454
499.9946289,0.187645599,0.169489354,0.365511417,0.245926142,0.403198749,0.309306622,0.450809151,0.380398065,0.464436233,0.507288098,0.371218592,0.430265248,0.617295742,0.739835739,0.605730176,0.4844428,0.740894318,0.3439475
499.0057068,0.196244255,0.173227862,0.366917431,0.245700419,0.401528508,0.307829857,0.448655814,0.378417879,0.461966336,0.505000174,0.369568795,0.428780526,0.615344107,0.73790127,0.604288042,0.483728737,0.740459323,0.343900114
498.0166016,0.204849839,0.176381201,0.367707163,0.245033652,0.399596125,0.306208968,0.446137279,0.376298577,0.459683329,0.502884507,0.368083924,0.42739448,0.613540947,0.736235261,0.602965951,0.482842982,0.739758074,0.343782514
496.9892883,0.21242854,0.178963587,0.367957622,0.244628131,0.397931397,0.304828942,0.443812519,0.374731958,0.457809657,0.501119912,0.366726905,0.426196694,0.611963868,0.734803259,0.60197407,0.482137889,0.739341438,0.343723267
495.9998169,0.219513714,0.181177214,0.368204355,0.243895009,0.396301299,0.303546935,0.441984028,0.373189867,0.456153423,0.49943465,0.365623623,0.425421745,0.610816598,0.733961284,0.601341665,0.481743872,0.739710748,0.343805552
495.0101624,0.227404729,0.183292821,0.367872268,0.242766678,0.394367695,0.302115947,0.439936936,0.371414125,0.454240173,0.497812718,0.364747107,0.424471229,0.610001743,0.73300308,0.600766182,0.481324256,0.739791274,0.343919098
493.9821777,0.235017896,0.185279205,0.367543906,0.241672427,0.392778724,0.300745189,0.437918544,0.370093226,0.452966124,0.496613503,0.364013553,0.42389518,0.609560728,0.733211398,0.600842893,0.481463075,0.740610421,0.344109863
492.9920654,0.241951138,0.186560258,0.366401911,0.240390331,0.390791446,0.29910472,0.435754716,0.368692935,0.451348007,0.495190978,0.363176972,0.42344448,0.608776987,0.73304677,0.600764751,0.481344283,0.74104172,0.344238609
492.00177,0.247249946,0.187185675,0.365566194,0.240139306,0.388731033,0.297835678,0.433907747,0.367365658,0.450135827,0.494084448,0.362299472,0.422865391,0.608241797,0.732266188,0.600324214,0.481365234,0.741404891,0.344208449
491.0112915,0.252272934,0.187975735,0.36520341,0.239980802,0.387517631,0.29718256,0.432666987,0.366506368,0.449340701,0.493583858,0.362261802,0.422728062,0.608121276,0.731835425,0.600895882,0.481681883,0.742622495,0.344751328
489.9825134,0.258324295,0.188718751,0.363802046,0.238305196,0.385712951,0.295694113,0.43089959,0.365396738,0.448395699,0.492867023,0.362026125,0.422835648,0.608421624,0.733038008,0.601676703,0.482350797,0.744169831,0.345514476
488.9916077,0.263557136,0.189074829,0.362296164,0.236998946,0.383882642,0.294350147,0.429355443,0.364443332,0.447736055,0.492612183,0.361842364,0.422967047,0.608941495,0.734115183,0.602413833,0.482920349,0.745721459,0.346407712
488.0004272,0.267688692,0.189055219,0.36106512,0.236489058,0.382097215,0.293462426,0.428121328,0.363637269,0.447060615,0.492259264,0.361778468,0.423084766,0.609223664,0.73460871,0.603111267,0.483730733,0.747344554,0.347312003
487.0091248,0.271701783,0.189314932,0.360187471,0.236083001,0.380894691,0.292752415,0.427201361,0.363262475,0.446929216,0.492482185,0.362265676,0.423686832,0.610072255,0.735427976,0.604323447,0.484788001,0.749623716,0.348623604
486.0177002,0.275471181,0.189304009,0.358770907,0.234852627,0.379489124,0.291762829,0.426315606,0.362821877,0.44693777,0.492765427,0.362687647,0.424489379,0.611446858,0.737689555,0.606033921,0.486104995,0.75230968,0.349835098
484.9877625,0.279194742,0.189094633,0.356898248,0.233539373,0.378069073,0.290868014,0.425518334,0.362686545,0.447200179,0.493343294,0.363441885,0.425551385,0.613319457,0.74077034,0.608232021,0.487894863,0.755677521,0.351417542
483.9958801,0.281600177,0.188833892,0.35617885,0.23403801,0.377029628,0.290670365,0.425222248,0.362850845,0.447414756,0.49410075,0.364154875,0.426349402,0.614443421,0.741653979,0.609743536,0.489392519,0.758463085,0.352786273
483.0037842,0.284010798,0.188681647,0.355418921,0.233696833,0.376339197,0.290279865,0.425073415,0.362918198,0.448073775,0.495007813,0.365106583,0.427516997,0.616275489,0.7434178,0.611868501,0.491107762,0.761826158,0.354237258
482.0114441,0.28649056,0.188571304,0.354376525,0.233018875,0.375845492,0.290138781,0.42526415,0.363604933,0.449087471,0.496458262,0.366414577,0.42931968,0.618899226,0.747102797,0.614778757,0.493729889,0.766138196,0.356042534
481.0189819,0.288836032,0.18841964,0.353411436,0.232705146,0.375363708,0.290213972,0.425794274,0.364316702,0.450454205,0.498262256,0.367997676,0.431348085,0.621831477,0.750850856,0.618147016,0.496319234,0.770798743,0.358136982
479.9881592,0.290394485,0.187672079,0.351578414,0.231104389,0.374469638,0.289699078,0.425778836,0.364568651,0.45135802,0.499865741,0.369151443,0.432933092,0.624752224,0.754671037,0.621195912,0.49887827,0.775496662,0.360151887
478.9952087,0.291921347,0.187279299,0.350701541,0.231057495,0.374182284,0.289847404,0.426612288,0.36555478,0.452885628,0.501828909,0.370651424,0.435122073,0.627876759,0.758685172,0.624496341,0.501639783,0.780461967,0.362314642
478.0021362,0.293423206,0.187194198,0.350179553,0.230723143,0.374223352,0.290303409,0.427722216,0.366753995,0.454641938,0.503924251,0.372580588,0.437487036,0.631228507,0.762948871,0.628423154,0.504492581,0.785254359,0.364867508
477.0088501,0.294572115,0.186895669,0.349511147,0.230561614,0.374455959,0.290755034,0.428758144,0.368058026,0.456579924,0.506286204,0.374512017,0.439811379,0.63473928,0.767337859,0.632235527,0.507657886,0.790703893,0.367311627
476.0153503,0.295929104,0.186670929,0.349264622,0.230614007,0.37494123,0.291591734,0.430295259,0.369716823,0.45912841,0.509447992,0.37697354,0.442944497,0.639085531,0.772829413,0.636645854,0.511381149,0.7969625,0.370401263
474.9835205,0.297282845,0.18645443,0.348565757,0.230731383,0.375644386,0.292553097,0.432249665,0.371721774,0.461873472,0.512862206,0.379730254,0.446249485,0.643873453,0.779019594,0.641960561,0.515654326,0.804170966,0.373543739
473.989624,0.298080653,0.186367422,0.348479658,0.230664194,0.376552284,0.293535352,0.43411243,0.373530507,0.464493781,0.515972197,0.382156402,0.449264169,0.648617089,0.784423173,0.646778405,0.519605696,0.810726106,0.376521379
472.9955444,0.299040884,0.186134666,0.348172694,0.231107339,0.377327204,0.294544876,0.436210454,0.375650942,0.467153758,0.519231677,0.38477689,0.452382594,0.65322566,0.790255487,0.651673615,0.523304701,0.817307591,0.379201025
472.0012817,0.29975456,0.18606481,0.348268241,0.231611162,0.378552795,0.295708388,0.438477039,0.377796739,0.470231354,0.52272135,0.387463957,0.455589503,0.658070624,0.796207905,0.656756043,0.527469754,0.824196398,0.382214606
471.0068665,0.300685346,0.186061233,0.348569423,0.232249662,0.380205602,0.297443628,0.441294432,0.380352676,0.473586589,0.526975691,0.390722603,0.459526569,0.663756847,0.803247333,0.662689984,0.53242141,0.832452595,0.385743111
470.012207,0.302030116,0.186426431,0.349227399,0.233217239,0.382533521,0.299649119,0.444883585,0.38376376,0.477935553,0.531930268,0.394874483,0.464210361,0.670461595,0.811644435,0.669807315,0.537868679,0.841807425,0.390179992
469.0173035,0.302648425,0.186391518,0.349718183,0.23399128,0.384232432,0.301211774,0.44765228,0.386318177,0.481444269,0.535997331,0.397725731,0.468093485,0.676128388,0.818460167,0.67572397,0.542405427,0.849461019,0.393653989
467.9840698,0.303531677,0.186640218,0.350597262,0.234517664,0.386327982,0.303140044,0.45113489,0.389370382,0.485589862,0.540748954,0.40153563,0.472409099,0.682335973,0.825974345,0.682068288,0.547307432,0.858014524,0.397575617
466.9887695,0.304322213,0.186752781,0.351348221,0.235945001,0.388305575,0.305155873,0.45408541,0.392115772,0.489345312,0.545069933,0.404865474,0.476159275,0.688030243,0.833059311,0.687634111,0.552067578,0.865731895,0.401287168
465.9933777,0.305325389,0.187230974,0.352601737,0.237228677,0.391184151,0.307516843,0.458284706,0.3956545,0.494099736,0.550306737,0.408997446,0.481086999,0.695104539,0.841507196,0.695024848,0.558037102,0.874967873,0.406039447
464.9978027,0.306186676,0.187641606,0.354125291,0.238613591,0.394078344,0.31001237,0.462419361,0.399548352,0.499046713,0.556049764,0.413165242,0.48653385,0.702781379,0.850662053,0.702940047,0.564206123,0.885701537,0.410529316
464.0020142,0.30720216,0.188071519,0.35559684,0.239928126,0.397140414,0.312685996,0.466683805,0.403120428,0.503498673,0.561421871,0.417217702,0.491351306,0.709772587,0.859158993,0.710195005,0.570352256,0.895121217,0.414904147
463.006012,0.308020502,0.188678816,0.357176215,0.241953671,0.400203198,0.315327466,0.470903665,0.407002181,0.508420765,0.566978335,0.421577066,0.496259511,0.717130005,0.86832571,0.718014062,0.576205969,0.90588361,0.419585973
462.0098267,0.308909208,0.189240366,0.35906899,0.243316397,0.403498799,0.318012893,0.475409895,0.41074732,0.513655424,0.572819412,0.425936282,0.501572847,0.724672973,0.877910554,0.726028264,0.582677126,0.916845679,0.424235612
461.0134888,0.310171008,0.190143168,0.361486197,0.244923621,0.40753296,0.321371645,0.480932206,0.415546984,0.519916475,0.580179632,0.431133956,0.508101583,0.734439313,0.889322519,0.735773146,0.590293229,0.930448473,0.430463791
460.0169373,0.311589152,0.191119641,0.364205122,0.247503161,0.411816716,0.325027674,0.486515075,0.420488715,0.525983989,0.586888194,0.436601758,0.514585495,0.743815899,0.90084666,0.745720863,0.598532677,0.943496347,0.436792791
458.9819031,0.313313395,0.192328811,0.367321223,0.250454605,0.416466683,0.328833878,0.492365867,0.425603092,0.53240478,0.594899416,0.442328572,0.521483839,0.753517449,0.912595034,0.756072223,0.60704881,0.957746565,0.443805814
457.9849548,0.314678699,0.193493709,0.370272487,0.252621204,0.420863062,0.332368642,0.497954071,0.430473507,0.538593829,0.601959348,0.447739333,0.528393507,0.763030767,0.924988627,0.76650852,0.614946663,0.971483111,0.450093746
456.9878235,0.31627661,0.194665879,0.37340495,0.25507772,0.425324589,0.336117864,0.503712058,0.435480654,0.545134604,0.608806968,0.453285724,0.534979522,0.772987723,0.937037468,0.776196897,0.62276715,0.984711111,0.456160486
455.9905396,0.318068236,0.196177602,0.376871705,0.257572293,0.430318713,0.33984524,0.509997785,0.440734327,0.5518924,0.61629343,0.458867967,0.541931093,0.783348799,0.948937833,0.786727071,0.630393803,0.998314202,0.462076783
454.9930725,0.319964677,0.197675467,0.380909711,0.260243088,0.435412049,0.343910962,0.516382456,0.445853829,0.558159113,0.623888195,0.464720666,0.548374534,0.793148935,0.960593581,0.796584427,0.638243258,1.011157393,0.467266083
453.9953918,0.322061807,0.19956249,0.384823263,0.263125688,0.440690249,0.347658485,0.522424638,0.451011151,0.565151095,0.630875886,0.47014454,0.554390311,0.801752091,0.971348226,0.805745363,0.645231485,1.02229023,0.472050309
452.9975281,0.324155837,0.201212242,0.388558626,0.265765697,0.444956005,0.351103187,0.527374625,0.454936564,0.569990873,0.636493981,0.474217206,0.55950278,0.80913347,0.979962111,0.812877297,0.650820017,1.031556606,0.475998789
451.9994812,0.325952709,0.202686772,0.39211902,0.267856002,0.449091762,0.354020476,0.531782091,0.458569318,0.574727714,0.641586542,0.478117228,0.563957512,0.815588653,0.987427592,0.819488823,0.655710161,1.040266156,0.479467213
451.0012817,0.328418344,0.204664931,0.396175087,0.270343006,0.453388155,0.357410997,0.536728323,0.462602228,0.579757392,0.647095382,0.482466906,0.568780065,0.822533786,0.995698273,0.826568127,0.661361039,1.049162984,0.483622611
450.0028381,0.331165463,0.206749156,0.400163472,0.273060113,0.457818627,0.360482186,0.541297138,0.466450989,0.584624231,0.65234381,0.486632675,0.573891282,0.829719901,1.004521132,0.833951592,0.66717422,1.058534503,0.487910599
449.0042419,0.333917379,0.208874553,0.40431577,0.275513411,0.461968422,0.363629639,0.54581064,0.470051706,0.589413345,0.657903612,0.490863293,0.578778386,0.837118805,1.013027668,0.841040969,0.672816932,1.06749773,0.492155105
448.0054932,0.33658433,0.210700765,0.408135474,0.27775234,0.465448946,0.36642772,0.549823165,0.473535717,0.593589425,0.662560761,0.494602054,0.583137572,0.843524575,1.021157742,0.848147631,0.67831552,1.076287866,0.496599168
447.0064697,0.339108497,0.212477982,0.41173172,0.280082643,0.46897471,0.368680805,0.553681374,0.476846755,0.597922504,0.667605519,0.498371244,0.587832868,0.850098729,1.029321194,0.855089843,0.683656812,1.085246086,0.500552714
446.0073547,0.342207581,0.214716926,0.415652752,0.282261342,0.472671628,0.371747166,0.558259368,0.480727136,0.603054762,0.673227251,0.502992868,0.593238771,0.858013451,1.038789034,0.863012493,0.690136433,1.095500112,0.505431473
445.0080872,0.345550329,0.21701555,0.419534773,0.284755856,0.476879567,0.374696195,0.56288439,0.484863013,0.608186483,0.679341912,0.507583737,0.59860456,0.866044402,1.048249245,0.87174958,0.696917355,1.106754899,0.510259986
444.0085144,0.348778784,0.219280645,0.423784226,0.28714183,0.48083061,0.37773627,0.567599058,0.488969296,0.613706708,0.685595989,0.512475252,0.604501545,0.874988973,1.058962584,0.88043493,0.703922331,1.11805594,0.515145719
443.0088501,0.352277488,0.221360028,0.427562445,0.28940618,0.484719336,0.381104857,0.572579503,0.493127257,0.619308233,0.692290962,0.517722547,0.610666633,0.883668721,1.069457531,0.88957566,0.710786581,1.130033731,0.520298183
442.0090027,0.355660379,0.223690704,0.431411624,0.291580737,0.488620639,0.384170741,0.577297807,0.497618347,0.624937475,0.698470414,0.522490144,0.616785884,0.892296672,1.080341935,0.898615599,0.717966855,1.141015291,0.525250852
441.0089722,0.359181732,0.226108909,0.435390919,0.294022918,0.492715836,0.387379378,0.582354426,0.50208348,0.630824328,0.705417991,0.527654648,0.623043478,0.901335001,1.091125369,0.907602668,0.725352645,1.152953506,0.530806899
440.008728,0.363063932,0.228442118,0.439488083,0.296895355,0.49688676,0.390705943,0.587825954,0.506486237,0.636770248,0.712572157,0.533223271,0.629364848,0.910824299,1.102245569,0.916994751,0.733061135,1.16409409,0.536327422
439.0083313,0.366829395,0.230782151,0.443503887,0.299136937,0.501212657,0.394055367,0.593013167,0.511520267,0.643216312,0.719944835,0.538930774,0.636076331,0.920509934,1.113753796,0.927119792,0.740414083,1.176989317,0.541620493
438.0077515,0.370817304,0.233258516,0.447747648,0.301950872,0.505849958,0.397686511,0.599063695,0.516494036,0.649759233,0.727588475,0.544783711,0.642966032,0.930339932,1.125723958,0.937257052,0.748135448,1.189056754,0.547276318
437.007019,0.374821305,0.235835433,0.451874614,0.304298848,0.510358214,0.401465565,0.604696751,0.521766782,0.656544387,0.734939396,0.550757468,0.649785936,0.940508664,1.137581348,0.946835637,0.756274819,1.201403141,0.552599669
436.0060425,0.379166603,0.23841171,0.456088781,0.306961209,0.514855206,0.405034989,0.611199915,0.526929557,0.663734376,0.743283689,0.556793511,0.657095254,0.950965226,1.150293708,0.957659483,0.764192581,1.214906216,0.558161259
435.0049438,0.383411378,0.240947783,0.460395366,0.309393197,0.519726813,0.409152746,0.617387414,0.532443166,0.670917392,0.751350701,0.563226402,0.664378822,0.961352646,1.163242102,0.968023062,0.772277117,1.227486849,0.563808143
434.0036926,0.387926519,0.243664354,0.464880556,0.312345594,0.524761677,0.413245142,0.623839438,0.538265109,0.678235769,0.759284496,0.569393396,0.671793103,0.972048819,1.175121903,0.978580713,0.779932141,1.239732504,0.56961149
433.0021667,0.392246813,0.246082634,0.469142526,0.315257222,0.529836118,0.417461842,0.630493581,0.544187307,0.685443282,0.767538786,0.57586807,0.679013312,0.982384443,1.18737793,0.988504589,0.788262308,1.25297606,0.575251043
432.0005188,0.39738965,0.248875916,0.473916441,0.318175465,0.535201907,0.421569735,0.637650788,0.550090849,0.693522513,0.77644378,0.582568765,0.686463833,0.992817521,1.200643778,0.999335468,0.796492815,1.265161276,0.581012487
430.9987488,0.402372867,0.25183624,0.47867772,0.321416229,0.54106462,0.426284313,0.644671261,0.556383371,0.701198697,0.785249531,0.58938092,0.694202244,1.004068255,1.21362257,1.010074019,0.804196656,1.278035045,0.586546302
429.9967651,0.407120973,0.254502714,0.48335433,0.324039757,0.546391368,0.430600762,0.651732147,0.562334836,0.708845615,0.793371916,0.595475256,0.701078713,1.013497949,1.225314379,1.019880652,0.811861217,1.289341569,0.591565311
428.9945374,0.411951929,0.257130325,0.487897009,0.327172786,0.551736176,0.434895784,0.658360422,0.568023741,0.716373205,0.801554263,0.601652205,0.707995653,1.02319634,1.236761212,1.029527187,0.819017768,1.3006078,0.596487045
427.9921875,0.416930854,0.260006398,0.492454082,0.33009994,0.557478488,0.43928811,0.665226817,0.573570609,0.723498941,0.809529424,0.607466698,0.714786589,1.033334136,1.247835875,1.039018631,0.826203644,1.311692476,0.601117373
426.9896851,0.422399402,0.262645632,0.497417003,0.333292127,0.563195825,0.443922788,0.672221124,0.579791129,0.731229723,0.817486823,0.613655329,0.721656919,1.042695284,1.258935928,1.0480721,0.832949042,1.322210193,0.60580945
425.986969,0.427840054,0.265598387,0.502431929,0.336730272,0.568775535,0.448411375,0.679379165,0.58557421,0.738512099,0.825322211,0.61961925,0.727942646,1.052300096,1.269879937,1.057084084,0.83980149,1.332456589,0.610284329
424.9841003,0.432859272,0.268322796,0.507050872,0.339639992,0.574059606,0.452661008,0.685902,0.591018975,0.745327234,0.832329512,0.624843359,0.734000325,1.06082654,1.279450178,1.065284491,0.846067011,1.342237473,0.614834309
423.9810486,0.4379403,0.270969093,0.511733711,0.342713773,0.579540372,0.456933051,0.692146301,0.596358299,0.751758695,0.839696467,0.6302526,0.74020946,1.069199562,1.289809942,1.073559046,0.852250695,1.351670742,0.619125664
423.0164795,0.44292295,0.273590922,0.516196668,0.345505029,0.584627569,0.461121887,0.698430777,0.601684213,0.758076608,0.846513093,0.635302067,0.745883048,1.076788902,1.298938513,1.081153154,0.858137071,1.360151052,0.623318732
422.0130615,0.448423445,0.276694924,0.521391332,0.349042058,0.591028273,0.465874851,0.70605737,0.607658148,0.76549989,0.854413152,0.641091526,0.752510071,1.086873055,1.310243368,1.090457439,0.864952385,1.371521235,0.627996683
421.009491,0.454151273,0.279552996,0.526460588,0.352738023,0.596959055,0.470559686,0.713024437,0.613431394,0.772658706,0.861953318,0.646710277,0.758526325,1.095401287,1.320401788,1.099067926,0.871882856,1.381292224,0.632704973
420.0057983,0.459650934,0.282432437,0.531695783,0.355861992,0.602582753,0.474806428,0.719654024,0.618879437,0.779468417,0.869469225,0.652166128,0.764882207,1.104034901,1.330146551,1.106748819,0.878193319,1.391981006,0.636976302
419.0019226,0.464824498,0.285379499,0.53695029,0.359436631,0.608606339,0.479402572,0.726726949,0.624540925,0.786027134,0.877225936,0.657773376,0.771042287,1.11242497,1.340081692,1.115705013,0.884548724,1.40172708,0.6415869
417.9978027,0.470383197,0.288409263,0.541960478,0.362656206,0.61445415,0.484113604,0.733871222,0.630076945,0.793159723,0.884633601,0.663141191,0.777012229,1.121311307,1.350757599,1.123633146,0.891269326,1.411809087,0.646504879
416.9935608,0.476355255,0.291648477,0.547961593,0.36659044,0.621140778,0.489275873,0.741332769,0.636380255,0.801052213,0.892875075,0.669350147,0.784054935,1.131262302,1.362336636,1.133756757,0.898679197,1.423722625,0.651995063
415.9891968,0.482149154,0.294766158,0.553535819,0.36990419,0.627327442,0.494350612,0.748732507,0.642512858,0.808170557,0.900441229,0.675202966,0.790648758,1.140895963,1.372917295,1.142510056,0.905202091,1.434273362,0.656797648
414.9846497,0.487978756,0.297894537,0.559155285,0.37362659,0.634257197,0.49936071,0.755980432,0.648353338,0.815669,0.908166945,0.681145728,0.797062755,1.14978385,1.384454131,1.151677251,0.912534952,1.444969416,0.662020743
414.0185242,0.493509054,0.300971806,0.564696014,0.377413124,0.640387237,0.504000962,0.762862027,0.65415901,0.822457671,0.915591657,0.686602235,0.803522646,1.159103751,1.394545913,1.160789609,0.918857932,1.455624819,0.666624546
413.0135803,0.49940297,0.304262847,0.570628882,0.381030232,0.647003591,0.508859456,0.770267963,0.660161674,0.829583585,0.923425317,0.692383528,0.809757948,1.168177724,1.405287027,1.168875337,0.926283181,1.466015458,0.671515048
412.0085144,0.505769968,0.307839692,0.576996446,0.385082871,0.654140353,0.51427424,0.778567493,0.666569471,0.83768934,0.932084262,0.69883436,0.817270935,1.178152442,1.417748332,1.179570317,0.933956206,1.478509665,0.677117527
411.0032959,0.512517393,0.311664373,0.584034264,0.389515489,0.661933005,0.519826472,0.786897481,0.673617959,0.845793903,0.941131294,0.705668211,0.824766874,1.189330459,1.430571318,1.190513253,0.942115963,1.491658211,0.683048487
409.9978943,0.51845175,0.315050393,0.590294182,0.394105405,0.668366492,0.524830103,0.794151783,0.679422915,0.852958918,0.948756099,0.71174717,0.831344307,1.198653102,1.44200182,1.199561119,0.949236989,1.502445102,0.688355863
408.9922791,0.524560094,0.318612814,0.596730292,0.39803046,0.675433278,0.530027688,0.801459432,0.685736239,0.860666156,0.956965864,0.717678845,0.838050246,1.207988977,1.452978849,1.208864331,0.956759274,1.513073206,0.69364202
407.9865417,0.530954242,0.322345078,0.603215575,0.401819438,0.682522714,0.535184324,0.809072316,0.691872358,0.868736625,0.965209365,0.723607123,0.845576406,1.218072295,1.464811325,1.2188766,0.964056015,1.525954723,0.69915396
406.9806824,0.538578332,0.326672554,0.611261129,0.406609923,0.69030118,0.541320562,0.817960203,0.699415088,0.877445102,0.975378037,0.730674565,0.853395343,1.230133295,1.480125546,1.230320692,0.972809494,1.539407372,0.705334365
406.0133057,0.546045721,0.331209272,0.619375229,0.411762238,0.698782504,0.547890782,0.827592373,0.707021892,0.886659801,0.984225154,0.738461673,0.861835659,1.241835952,1.493601203,1.242423892,0.982051969,1.554675698,0.711931825
405.0070496,0.553467512,0.335472763,0.62694937,0.416368455,0.706800401,0.553852081,0.836028636,0.714021862,0.895417213,0.99411583,0.745553911,0.869948447,1.25355649,1.50624752,1.25361371,0.990775466,1.566915274,0.718277812
404.0006714,0.560617089,0.339516401,0.634676337,0.421280325,0.714537799,0.559242964,0.844518364,0.720607817,0.903751254,1.00335145,0.752339661,0.877427518,1.263734341,1.519602776,1.263952136,0.999928594,1.580760956,0.723971903
402.9940796,0.567801952,0.343968809,0.64223665,0.426319927,0.722095966,0.565156639,0.853143156,0.727560639,0.91224581,1.01249218,0.7591151,0.88523519,1.274559617,1.533201575,1.27456212,1.007972836,1.594732285,0.730449855
401.9873657,0.576853871,0.349238753,0.651310086,0.431569487,0.731247008,0.571945906,0.863333285,0.735542953,0.922515571,1.02286911,0.767124951,0.893999159,1.287854314,1.546130896,1.287402749,1.01798141,1.609233618,0.737789452
401.0192261,0.586422086,0.354559183,0.660956562,0.437172622,0.740998507,0.579080105,0.873218894,0.743862391,0.932479322,1.034726262,0.775105596,0.903933525,1.301247954,1.564005375,1.300266027,1.028030038,1.623845339,0.745089054
400.0121765,0.594348609,0.359439254,0.669340253,0.442305535,0.749421895,0.585411608,0.882651389,0.751486182,0.942247033,1.044314146,0.782914102,0.9124282,1.314324141,1.579700947,1.312611103,1.037671924,1.640456319,0.751642764
399.0049744,0.602912068,0.364516884,0.678021431,0.447439045,0.757958889,0.591638029,0.89189744,0.758799672,0.951467812,1.054570675,0.790055215,0.921072364,1.325102091,1.592838168,1.325260282,1.046996236,1.655186176,0.75892961
397.9975891,0.611287415,0.3695077,0.686556757,0.452927649,0.76587081,0.597930908,0.901261091,0.766598225,0.960069299,1.064188004,0.797966003,0.929416239,1.337999344,1.606240749,1.335562468,1.056180596,1.670549273,0.764936149
396.9900208,0.621187449,0.374976963,0.696345329,0.458743453,0.775892019,0.605056346,0.911660254,0.775065959,0.970444202,1.075404167,0.806163549,0.939116716,1.350740314,1.624278784,1.350598574,1.066512227,1.686097026,0.77276969
395.9823303,0.632049441,0.381415755,0.706963718,0.464700878,0.786560595,0.61286372,0.923174083,0.784772337,0.98204881,1.088300228,0.815703452,0.94949764,1.367225528,1.641620755,1.364638329,1.078305125,1.704176426,0.781294584
395.0132751,0.641907692,0.387155265,0.71702534,0.470614404,0.796353817,0.619852543,0.93319124,0.793173134,0.992501497,1.09894228,0.82420063,0.958957136,1.380568862,1.657774687,1.379516959,1.088651061,1.721104741,0.78924644
394.005249,0.651046991,0.392706931,0.725758314,0.476667643,0.804525077,0.626505792,0.942984641,0.800971329,1.00163579,1.109650254,0.831669927,0.967329145,1.392691731,1.672575593,1.390407801,1.097702384,1.735663891,0.796275914
392.9971008,0.661399305,0.39836672,0.735095203,0.482138217,0.814446628,0.633838713,0.952449024,0.809109032,1.011915445,1.120396614,0.839828074,0.977016032,1.405647159,1.687374353,1.403709054,1.108026147,1.753045082,0.803636074
391.988739,0.672501147,0.404934347,0.746294379,0.488286048,0.825083256,0.641347468,0.964334607,0.818508565,1.023160219,1.132332087,0.848721087,0.987597585,1.420169234,1.708268404,1.418786764,1.120236516,1.770196795,0.811899006
391.0190125,0.682882547,0.41076538,0.756355107,0.494890183,0.834070087,0.648643732,0.974879444,0.826738954,1.033331394,1.143341184,0.856801629,0.996591091,1.434751034,1.721762657,1.431049466,1.130177855,1.786151528,0.818836153
390.010376,0.6955778,0.417740345,0.767408311,0.500821352,0.84538132,0.656402946,0.986317217,0.836300671,1.045339823,1.155933499,0.866124809,1.006961703,1.450006485,1.73867321,1.445925593,1.141896248,1.80263567,0.827739835
389.0015869,0.706338465,0.424162239,0.778537273,0.50717473,0.855723202,0.664281309,0.997340262,0.845145583,1.056035161,1.167529583,0.875247955,1.017387271,1.464224696,1.756737113,1.459661365,1.153075337,1.8175174,0.835844696
387.9926453,0.717951953,0.43079111,0.788581014,0.513196647,0.865455866,0.6715675,1.008239865,0.854036987,1.066717148,1.179088593,0.883668602,1.027486324,1.476146698,1.772757411,1.473973751,1.163938522,1.839210868,0.843767881
386.9835205,0.730342686,0.437703699,0.799562514,0.520205259,0.875971019,0.679503322,1.019944668,0.863066733,1.077452898,1.192126155,0.893117547,1.037833571,1.49375689,1.789563417,1.488170743,1.175507069,1.852999091,0.851999521
386.0130615,0.743867397,0.445357174,0.8125875,0.527245283,0.888059855,0.687870741,1.032273293,0.873806953,1.090764165,1.203867555,0.90318805,1.049534082,1.508041382,1.809084892,1.505561709,1.188099384,1.874328613,0.861379385
385.0036316,0.756922364,0.452719688,0.824513137,0.534439564,0.899184883,0.695693314,1.044194341,0.883053541,1.102241158,1.217369914,0.912426412,1.059641838,1.523954391,1.827064037,1.520907521,1.19908452,1.892098665,0.869812787
383.9940491,0.769838572,0.45956111,0.835792363,0.540936828,0.90967238,0.70402652,1.055267215,0.892923057,1.113590002,1.229230285,0.921806634,1.070333958,1.538729191,1.844864368,1.53379488,1.211169481,1.910011888,0.878830433
382.984314,0.781215787,0.466424942,0.846634328,0.547053814,0.91946882,0.710864306,1.065952659,0.901441693,1.124217391,1.241501331,0.929853797,1.079449654,1.551266432,1.860707283,1.547613382,1.221432567,1.930544496,0.886709333
382.0132141,0.795402825,0.473765492,0.859421909,0.553903639,0.931282699,0.719658971,1.07790637,0.91135174,1.135362983,1.254396677,0.940312147,1.091058254,1.569631577,1.877383113,1.56583786,1.234544396,1.942638278,0.896569669
381.0032043,0.811628401,0.482233256,0.872962475,0.561899185,0.944539607,0.729477644,1.092112184,0.922806263,1.149404168,1.269772768,0.95175904,1.104265809,1.586359262,1.900762439,1.583277702,1.249099016,1.970873952,0.906664968
379.992981,0.826152206,0.490749329,0.885467529,0.569480658,0.956258416,0.738241315,1.104625583,0.933148623,1.162976146,1.283111215,0.961530626,1.115927219,1.602012515,1.923618317,1.599294901,1.262550592,1.991844416,0.916492939
378.9826355,0.841061175,0.499184221,0.899074674,0.577495933,0.969038308,0.747502923,1.117083907,0.943844616,1.176195741,1.298748016,0.972726762,1.12891674,1.620788336,1.944219351,1.616183758,1.276342392,2.012276888,0.926531613
378.0109863,0.85655117,0.507273376,0.911715508,0.584760249,0.980558813,0.756685555,1.131544471,0.954089522,1.189372778,1.313504815,0.983251572,1.140268683,1.640783191,1.965912342,1.634236574,1.290514112,2.032269955,0.936585307
377.0003357,0.870738268,0.514681041,0.923993826,0.592506349,0.99227941,0.764610946,1.144108415,0.964473069,1.20147419,1.325436831,0.992976308,1.151802897,1.65423882,1.98113668,1.649979472,1.301297307,2.051784277,0.946182966
375.9895325,0.88935554,0.524735928,0.939948559,0.60085851,1.00593257,0.775338292,1.158871055,0.977142036,1.216339707,1.341579437,1.005565524,1.165986061,1.67482233,2.008039713,1.671049356,1.316827536,2.07835412,0.957571328
375.0174255,0.906725586,0.534172535,0.953979492,0.609566987,1.020378351,0.785175324,1.173247695,0.98898375,1.230827093,1.358026981,1.017682314,1.178550363,1.693952441,2.028292656,1.688677907,1.3326087,2.098948002,0.968852222
374.0063171,0.923274279,0.54234463,0.968804002,0.617937982,1.033034325,0.794024587,1.186479211,1.000185132,1.245532036,1.373379469,1.028791189,1.192760348,1.714191318,2.048527241,1.709615946,1.348198056,2.121709824,0.979708612
372.9950562,0.939804673,0.551706195,0.982481659,0.625575602,1.04586482,0.80429256,1.200884938,1.011733294,1.258846402,1.387860537,1.040690303,1.205896139,1.732075572,2.067735434,1.726803303,1.362644196,2.14257884,0.990438819
371.9836426,0.959905386,0.562491,0.99915868,0.63533181,1.061732769,0.815781653,1.218710423,1.025526166,1.275826335,1.407339454,1.05491662,1.221134901,1.753807902,2.103020191,1.748779535,1.38008368,2.174907684,1.003472447
371.0109863,0.978420436,0.572273016,1.014023066,0.643936038,1.076374888,0.826157391,1.234538555,1.037717819,1.292068481,1.423713088,1.067614555,1.236638665,1.774678111,2.123707771,1.768323779,1.39639616,2.199146986,1.014874101
369.9992676,0.997488022,0.58215946,1.030164123,0.65361917,1.090801477,0.837383688,1.249836683,1.050391674,1.307680726,1.441466451,1.079091311,1.25029254,1.796710372,2.146023035,1.790856123,1.412757516,2.227729559,1.027017832
368.9873962,1.016141057,0.591821909,1.045251846,0.662758648,1.105326056,0.847836375,1.264512777,1.063986897,1.322341204,1.457996845,1.092783689,1.265467405,1.819166303,2.176636457,1.807523966,1.427664876,2.245322943,1.039365768
368.0143127,1.034304261,0.601540625,1.060402989,0.67026037,1.118940115,0.85744226,1.279383659,1.075081706,1.33711791,1.474712729,1.105983973,1.278836846,1.838958979,2.194760323,1.829662204,1.443373799,2.274103403,1.050155044
367.0021362,1.054273248,0.612111688,1.076907992,0.680716932,1.134519815,0.868763566,1.296324611,1.08866322,1.354354978,1.492026806,1.118320107,1.293960094,1.859737396,2.223712683,1.853078008,1.461123943,2.308056593,1.062950015
365.9898376,1.076330662,0.623466671,1.095519304,0.69110316,1.151835561,0.881567538,1.313567638,1.104201198,1.372489095,1.511361003,1.133617043,1.312411904,1.883430243,2.255841017,1.874236226,1.480975747,2.333400965,1.077245712
365.0163269,1.097474694,0.634756982,1.112791181,0.700898528,1.168377042,0.893642783,1.332389116,1.119117141,1.389428139,1.530112863,1.148151875,1.328989744,1.906941056,2.275604248,1.90153563,1.499096632,2.358475685,1.090813875
364.0037537,1.11887598,0.645835817,1.130362868,0.710862935,1.184631109,0.904887915,1.349183679,1.132946968,1.407357574,1.550670028,1.16375494,1.343921185,1.929180264,2.309775591,1.919982791,1.518844604,2.39219451,1.103640914
362.9909973,1.139622092,0.657127261,1.147091866,0.720543861,1.199950576,0.917560399,1.366930604,1.146589398,1.426306963,1.56990099,1.177267909,1.361311913,1.953777075,2.339619875,1.946332812,1.536628962,2.424350977,1.116832256
362.0170288,1.160166621,0.667209387,1.164158106,0.731908798,1.216150284,0.928363979,1.383620143,1.161305904,1.442622662,1.58868444,1.191289306,1.37727344,1.978708744,2.363898039,1.969861031,1.553145647,2.450523138,1.129489779
361.0039978,1.18070209,0.679005146,1.18303287,0.742084682,1.232267737,0.940954924,1.401079178,1.175933003,1.459663868,1.607918739,1.206605911,1.393830776,2.00046277,2.381074905,1.99322629,1.573379755,2.485221386,1.142781734
359.9907837,1.207969666,0.692351401,1.203500628,0.753329337,1.25044775,0.95499742,1.42266798,1.192432046,1.48191905,1.630218029,1.223059416,1.412629128,2.029029608,2.427576303,2.020795107,1.594552398,2.509615898,1.158799887
359.0164795,1.232206464,0.704965234,1.222570419,0.764519751,1.267470956,0.968048453,1.441765189,1.208936334,1.501158953,1.65256846,1.239338994,1.431570649,2.050572872,2.453265667,2.044953585,1.614967704,2.548031092,1.172471762
358.0029907,1.255419135,0.717659175,1.241197348,0.775631487,1.286337018,0.981907964,1.460425854,1.224964499,1.519494653,1.673894763,1.255215526,1.450413108,2.078176022,2.488959312,2.070818186,1.633906841,2.567737103,1.186652064
356.9893799,1.278431654,0.728740871,1.260134339,0.786638796,1.303303361,0.994434893,1.477908015,1.239783525,1.538789749,1.6937778,1.270160198,1.467831969,2.098861933,2.51802206,2.091582775,1.652656436,2.605590582,1.200939417
356.0145874,1.30473876,0.743747413,1.282448649,0.798723221,1.323514223,1.009237766,1.499894977,1.257532358,1.560016274,1.717655897,1.287742972,1.486363888,2.125430107,2.540291548,2.11732626,1.673321843,2.634722948,1.215625167
355.0007019,1.331051588,0.757412732,1.303013802,0.811360657,1.343687057,1.023102045,1.521026492,1.2738837,1.581380129,1.740445614,1.304871202,1.5060637,2.153282166,2.569302797,2.14121747,1.696943521,2.663047314,1.232738733
353.9866333,1.356476188,0.770053685,1.322680593,0.822697341,1.361604452,1.036849141,1.539435029,1.29043293,1.601631999,1.763141155,1.32050848,1.525969505,2.185719728,2.599189758,2.173302174,1.717762113,2.668165207,1.247706056
353.0114746,1.377431393,0.781050921,1.340599775,0.833479941,1.378537774,1.049546957,1.557830572,1.304957271,1.620386124,1.780707479,1.33600986,1.542403579,2.202960253,2.624561071,2.185474396,1.735369802,2.730173826,1.261518478
351.9971313,1.40522337,0.796024144,1.363313913,0.846928954,1.399643064,1.064721346,1.581065655,1.324632406,1.644260764,1.806597114,1.355277658,1.566501737,2.248150587,2.643337727,2.223097563,1.761914968,2.768211365,1.27873373
350.9826355,1.432711482,0.810351908,1.385935307,0.860009253,1.420992851,1.080585361,1.606013656,1.345506072,1.668568611,1.835458398,1.374391794,1.588776231,2.26982522,2.684960604,2.26112628,1.783693671,2.795909643,1.297882915
350.0070801,1.455923557,0.824181795,1.407230854,0.872573614,1.44014442,1.095412493,1.628380656,1.362754941,1.690499187,1.857848167,1.392120361,1.609756947,2.294073343,2.713770151,2.287885666,1.807607412,2.803213596,1.313560247
